0,-0.4976,-0.02523
0.001,-0.4976,-0.02523
0.002,-0.4976,-0.02523
0.003,-0.4976,-0.02523
0.004,-0.4976,-0.02523
0.005,-0.4976,-0.02523
0.006,-0.4976,-0.02523
0.007,-0.4976,-0.02523
0.008,-0.4976,-0.02523
0.009,-0.4976,-0.02523
0.01,-0.4976,-0.02523
0.011,-0.4976,-0.02523
0.012,-0.4976,-0.02523
0.013,-0.4976,-0.02523
0.014,-0.4976,-0.02523
0.015,-0.4976,-0.02523
0.016,-0.4976,-0.02523
0.017,-0.4976,-0.02523
0.018,-0.49739,-0.02522
0.019,-0.49739,-0.02522
0.02,-0.49739,-0.02522
0.021,-0.49739,-0.02522
0.022,-0.49739,-0.02522
0.023,-0.49739,-0.02522
0.024,-0.49739,-0.02522
0.025,-0.49739,-0.02522
0.026,-0.49739,-0.02522
0.027,-0.49739,-0.02522
0.028,-0.49739,-0.02522
0.029,-0.49739,-0.02522
0.03,-0.49739,-0.02522
0.031,-0.49739,-0.02522
0.032,-0.49739,-0.02522
0.033,-0.49739,-0.02522
0.034,-0.49739,-0.02522
0.035,-0.49739,-0.02522
0.036,-0.49739,-0.02522
0.037,-0.49739,-0.02522
0.038,-0.49739,-0.02522
0.039,-0.49739,-0.02522
0.04,-0.49739,-0.02522
0.041,-0.49739,-0.02522
0.042,-0.49739,-0.02522
0.043,-0.49739,-0.02522
0.044,-0.49739,-0.02522
0.045,-0.49739,-0.02522
0.046,-0.49739,-0.02522
0.047,-0.49739,-0.02522
0.048,-0.49739,-0.02522
0.049,-0.49739,-0.02522
0.05,-0.49739,-0.02522
0.051,-0.49739,-0.02522
0.052,-0.49739,-0.02522
0.053,-0.49739,-0.02522
0.054,-0.49739,-0.02522
0.055,-0.49739,-0.02522
0.056,-0.49739,-0.02522
0.057,-0.49739,-0.02522
0.058,-0.49739,-0.02522
0.059,-0.49739,-0.02522
0.06,-0.49739,-0.02522
0.061,-0.49739,-0.02522
0.062,-0.49739,-0.02522
0.063,-0.49739,-0.02522
0.064,-0.49739,-0.02522
0.065,-0.49739,-0.02522
0.066,-0.49739,-0.02522
0.067,-0.49739,-0.02522
0.068,-0.49739,-0.02522
0.069,-0.49739,-0.02522
0.07,-0.49739,-0.02522
0.071,-0.49739,-0.02522
0.072,-0.49739,-0.02522
0.073,-0.49739,-0.02522
0.074,-0.49739,-0.02522
0.075,-0.49739,-0.02522
0.076,-0.49739,-0.02522
0.077,-0.49739,-0.02522
0.078,-0.49739,-0.02522
0.079,-0.49739,-0.02522
0.08,-0.49739,-0.02522
0.081,-0.49739,-0.02522
0.082,-0.49739,-0.02522
0.083,-0.49739,-0.02522
0.084,-0.49739,-0.02522
0.085,-0.49739,-0.02522
0.086,-0.49739,-0.02522
0.087,-0.49739,-0.02522
0.088,-0.49739,-0.02522
0.089,-0.49739,-0.02522
0.09,-0.49739,-0.02522
0.091,-0.49739,-0.02522
0.092,-0.49739,-0.02522
0.093,-0.49739,-0.02522
0.094,-0.49739,-0.02522
0.095,-0.49739,-0.02522
0.096,-0.49739,-0.02522
0.097,-0.49739,-0.02522
0.098,-0.49739,-0.02522
0.099,-0.49739,-0.02522
0.1,-0.49739,-0.02522
0.101,-0.49739,-0.02522
0.102,-0.49739,-0.02522
0.103,-0.49739,-0.02522
0.104,-0.49739,-0.02522
0.105,-0.49739,-0.02522
0.106,-0.49739,-0.02522
0.107,-0.49739,-0.02522
0.108,-0.49739,-0.02522
0.109,-0.49739,-0.02522
0.11,-0.49739,-0.02522
0.111,-0.49739,-0.02522
0.112,-0.49739,-0.02522
0.113,-0.49739,-0.02522
0.114,-0.49739,-0.02522
0.115,-0.49739,-0.02522
0.116,-0.49739,-0.02522
0.117,-0.49739,-0.02522
0.118,-0.49739,-0.02522
0.119,-0.49739,-0.02522
0.12,-0.49739,-0.02522
0.121,-0.49739,-0.02522
0.122,-0.49739,-0.02522
0.123,-0.49739,-0.02522
0.124,-0.49739,-0.02522
0.125,-0.49739,-0.02522
0.126,-0.49739,-0.02522
0.127,-0.49739,-0.02522
0.128,-0.49739,-0.02522
0.129,-0.49739,-0.02522
0.13,-0.49739,-0.02522
0.131,-0.49739,-0.02522
0.132,-0.49739,-0.02522
0.133,-0.49739,-0.02522
0.134,-0.49739,-0.02522
0.135,-0.49739,-0.02522
0.136,-0.49739,-0.02522
0.137,-0.49739,-0.02522
0.138,-0.49739,-0.02522
0.139,-0.49739,-0.02522
0.14,-0.49739,-0.02522
0.141,-0.49739,-0.02522
0.142,-0.49739,-0.02522
0.143,-0.49739,-0.02522
0.144,-0.49739,-0.02522
0.145,-0.49739,-0.02522
0.146,-0.49739,-0.02522
0.147,-0.49739,-0.02522
0.148,-0.49739,-0.02522
0.149,-0.49739,-0.02522
0.15,-0.49739,-0.02522
0.151,-0.49739,-0.02522
0.152,-0.49739,-0.02522
0.153,-0.49739,-0.02522
0.154,-0.49739,-0.02522
0.155,-0.49739,-0.02522
0.156,-0.49739,-0.02522
0.157,-0.49739,-0.02522
0.158,-0.49739,-0.02522
0.159,-0.49739,-0.02522
0.16,-0.49739,-0.02522
0.161,-0.49739,-0.02522
0.162,-0.49739,-0.02522
0.163,-0.49739,-0.02522
0.164,-0.49739,-0.02522
0.165,-0.49739,-0.02522
0.166,-0.49739,-0.02522
0.167,-0.49739,-0.02522
0.168,-0.49739,-0.02522
0.169,-0.49739,-0.02522
0.17,-0.49739,-0.02522
0.171,-0.49739,-0.02522
0.172,-0.49739,-0.02522
0.173,-0.49748,-0.02523
0.174,-0.49722,-0.02522
0.175,-0.4966,-0.0252
0.176,-0.49576,-0.02517
0.177,-0.4952,-0.02515
0.178,-0.49574,-0.02517
0.179,-0.49762,-0.02523
0.18,-0.50079,-0.02534
0.181,-0.50433,-0.02547
0.182,-0.50659,-0.02555
0.183,-0.50566,-0.02551
0.184,-0.50044,-0.02532
0.185,-0.49118,-0.02499
0.186,-0.48009,-0.0246
0.187,-0.47114,-0.02428
0.188,-0.46915,-0.02422
0.189,-0.47941,-0.02459
0.19,-0.50488,-0.0255
0.191,-0.54562,-0.02694
0.192,-0.59812,-0.02877
0.193,-0.65557,-0.03071
0.194,-0.71074,-0.0325
0.195,-0.75622,-0.03386
0.196,-0.78644,-0.03459
0.197,-0.79811,-0.03457
0.198,-0.79014,-0.03379
0.199,-0.76482,-0.03236
0.2,-0.72522,-0.03042
0.201,-0.67454,-0.02811
0.202,-0.61532,-0.02556
0.203,-0.54922,-0.02286
0.204,-0.47868,-0.02013
0.205,-0.40543,-0.01743
0.206,-0.33127,-0.01484
0.207,-0.25814,-0.01242
0.208,-0.18793,-0.01025
0.209,-0.12329,-0.00838
0.21,-0.06556,-0.00685
0.211,-0.01574,-0.00567
0.212,0.02558,-0.00483
0.213,0.05834,-0.00431
0.214,0.08224,-0.00409
0.215,0.09832,-0.00411
0.216,0.10755,-0.00434
0.217,0.11088,-0.00472
0.218,0.10952,-0.0052
0.219,0.1039,-0.00576
0.22,0.09592,-0.00632
0.221,0.08676,-0.00686
0.222,0.0772,-0.00733
0.223,0.06797,-0.00771
0.224,0.05883,-0.00799
0.225,0.05073,-0.00814
0.226,0.04395,-0.00814
0.227,0.03844,-0.00799
0.228,0.0341,-0.0077
0.229,0.03026,-0.00729
0.23,0.02711,-0.00676
0.231,0.02459,-0.00613
0.232,0.02257,-0.00544
0.233,0.02099,-0.00472
0.234,0.01972,-0.00402
0.235,0.01889,-0.00336
0.236,0.01867,-0.0028
0.237,0.01922,-0.00236
0.238,0.02063,-0.0021
0.239,0.02308,-0.00203
0.24,0.02652,-0.00216
0.241,0.0309,-0.00251
0.242,0.03608,-0.00307
0.243,0.04182,-0.00383
0.244,0.04787,-0.00477
0.245,0.05378,-0.00585
0.246,0.05913,-0.00703
0.247,0.06348,-0.00828
0.248,0.06644,-0.00954
0.249,0.06769,-0.01077
0.25,0.06704,-0.01193
0.251,0.06438,-0.01298
0.252,0.05976,-0.0139
0.253,0.05339,-0.01465
0.254,0.04557,-0.0152
0.255,0.03678,-0.01555
0.256,0.02753,-0.0157
0.257,0.0184,-0.01564
0.258,0.00999,-0.01538
0.259,0.00284,-0.01491
0.26,-0.00261,-0.01428
0.261,-0.006,-0.0135
0.262,-0.00712,-0.0126
0.263,-0.00589,-0.01162
0.264,-0.0024,-0.01059
0.265,0.00309,-0.00956
0.266,0.01023,-0.00858
0.267,0.01856,-0.00769
0.268,0.02754,-0.00692
0.269,0.03665,-0.00631
0.27,0.04535,-0.00589
0.271,0.05317,-0.00566
0.272,0.0597,-0.00564
0.273,0.0646,-0.00581
0.274,0.06772,-0.00615
0.275,0.06898,-0.00662
0.276,0.06845,-0.00718
0.277,0.06624,-0.00779
0.278,0.06254,-0.0084
0.279,0.05766,-0.00897
0.28,0.05194,-0.00945
0.281,0.04568,-0.0098
0.282,0.03919,-0.01002
0.283,0.03271,-0.01008
0.284,0.02649,-0.01001
0.285,0.02075,-0.00981
0.286,0.01559,-0.0095
0.287,0.01109,-0.00913
0.288,0.00727,-0.00872
0.289,0.00414,-0.00831
0.29,0.00167,-0.00795
0.291,-1.66E-04,-0.00765
0.292,-0.00143,-0.00744
0.293,-0.00219,-0.00733
0.294,-0.00245,-0.00732
0.295,-0.0023,-0.00742
0.296,-0.00178,-0.00761
0.297,-9.38E-04,-0.00786
0.298,1.36E-04,-0.00817
0.299,0.00146,-0.0085
0.3,0.0029,-0.00883
0.301,0.00435,-0.00915
0.302,0.0057,-0.00943
0.303,0.00682,-0.00964
0.304,0.00769,-0.00979
0.305,0.00818,-0.00984
0.306,0.00818,-0.0098
0.307,0.00764,-0.00964
0.308,0.00648,-0.00937
0.309,0.0048,-0.00899
0.31,0.00265,-0.00848
0.311,9.93E-05,-0.00787
0.312,-0.00275,-0.00714
0.313,-0.00581,-0.00634
0.314,-0.00888,-0.00547
0.315,-0.01185,-0.00458
0.316,-0.01459,-0.0037
0.317,-0.01705,-0.00286
0.318,-0.01922,-0.00211
0.319,-0.02106,-0.0015
0.32,-0.02267,-0.00106
0.321,-0.02415,-8.15E-04
0.322,-0.02563,-7.94E-04
0.323,-0.02726,-9.98E-04
0.324,-0.02915,-0.00143
0.325,-0.03145,-0.00206
0.326,-0.03427,-0.00284
0.327,-0.03763,-0.00375
0.328,-0.04147,-0.0047
0.329,-0.04564,-0.00565
0.33,-0.05,-0.00653
0.331,-0.05431,-0.00728
0.332,-0.05829,-0.00785
0.333,-0.06166,-0.0082
0.334,-0.06403,-0.0083
0.335,-0.0652,-0.00814
0.336,-0.06496,-0.00773
0.337,-0.06322,-0.0071
0.338,-0.06,-0.00629
0.339,-0.05535,-0.00533
0.34,-0.04953,-0.00431
0.341,-0.0429,-0.00326
0.342,-0.03588,-0.00226
0.343,-0.02902,-0.00136
0.344,-0.02278,-6.24E-04
0.345,-0.01769,-7.99E-05
0.346,-0.01421,2.41E-04
0.347,-0.0127,3.20E-04
0.348,-0.01346,1.50E-04
0.349,-0.01654,-2.53E-04
0.35,-0.02187,-8.66E-04
0.351,-0.02922,-0.00166
0.352,-0.03827,-0.00258
0.353,-0.04854,-0.00361
0.354,-0.0594,-0.00467
0.355,-0.07023,-0.00572
0.356,-0.0804,-0.00671
0.357,-0.08936,-0.00759
0.358,-0.09664,-0.00834
0.359,-0.10182,-0.00892
0.36,-0.10471,-0.00932
0.361,-0.10528,-0.00953
0.362,-0.10367,-0.00957
0.363,-0.10019,-0.00945
0.364,-0.09521,-0.00921
0.365,-0.08929,-0.00888
0.366,-0.08301,-0.00852
0.367,-0.07698,-0.00816
0.368,-0.07177,-0.00785
0.369,-0.0678,-0.00762
0.37,-0.06546,-0.00751
0.371,-0.06498,-0.00754
0.372,-0.06645,-0.0077
0.373,-0.06982,-0.008
0.374,-0.07476,-0.00841
0.375,-0.08095,-0.0089
0.376,-0.08795,-0.00945
0.377,-0.09532,-0.01
0.378,-0.10261,-0.01053
0.379,-0.10924,-0.01099
0.38,-0.11489,-0.01135
0.381,-0.11928,-0.01161
0.382,-0.12227,-0.01176
0.383,-0.12389,-0.01179
0.384,-0.1242,-0.01172
0.385,-0.12347,-0.01158
0.386,-0.12202,-0.01139
0.387,-0.12027,-0.01119
0.388,-0.11864,-0.01099
0.389,-0.1175,-0.01082
0.39,-0.11724,-0.01069
0.391,-0.11812,-0.01061
0.392,-0.1203,-0.01057
0.393,-0.12379,-0.01056
0.394,-0.12842,-0.01056
0.395,-0.134,-0.01054
0.396,-0.14018,-0.01048
0.397,-0.14656,-0.01037
0.398,-0.15269,-0.01019
0.399,-0.15798,-0.00994
0.4,-0.16204,-0.00962
0.401,-0.16455,-0.00925
0.402,-0.16526,-0.00886
0.403,-0.16411,-0.00848
0.404,-0.16104,-0.00816
0.405,-0.15629,-0.00792
0.406,-0.15022,-0.0078
0.407,-0.14327,-0.00784
0.408,-0.13607,-0.00805
0.409,-0.12916,-0.00845
0.41,-0.12318,-0.00903
0.411,-0.1187,-0.00976
0.412,-0.11621,-0.01063
0.413,-0.1161,-0.01161
0.414,-0.11856,-0.01265
0.415,-0.12366,-0.01371
0.416,-0.13125,-0.01475
0.417,-0.14102,-0.01575
0.418,-0.15248,-0.01666
0.419,-0.16502,-0.01747
0.42,-0.17796,-0.01817
0.421,-0.1906,-0.01875
0.422,-0.2022,-0.01922
0.423,-0.21204,-0.01957
0.424,-0.21955,-0.01982
0.425,-0.22432,-0.01999
0.426,-0.2261,-0.02009
0.427,-0.2248,-0.02014
0.428,-0.22044,-0.02014
0.429,-0.21334,-0.02009
0.43,-0.20396,-0.02001
0.431,-0.19287,-0.0199
0.432,-0.1807,-0.01977
0.433,-0.16808,-0.0196
0.434,-0.15575,-0.0194
0.435,-0.14436,-0.01916
0.436,-0.13447,-0.01891
0.437,-0.12646,-0.01862
0.438,-0.12061,-0.01829
0.439,-0.11705,-0.01794
0.44,-0.11576,-0.01755
0.441,-0.11653,-0.01715
0.442,-0.11906,-0.01672
0.443,-0.12287,-0.01628
0.444,-0.12757,-0.01582
0.445,-0.13258,-0.01535
0.446,-0.13742,-0.01489
0.447,-0.14163,-0.01443
0.448,-0.14478,-0.01398
0.449,-0.14671,-0.01356
0.45,-0.1472,-0.01318
0.451,-0.14619,-0.01284
0.452,-0.14377,-0.01255
0.453,-0.14005,-0.0123
0.454,-0.13543,-0.01212
0.455,-0.13015,-0.01198
0.456,-0.12454,-0.01188
0.457,-0.11892,-0.01181
0.458,-0.11357,-0.01176
0.459,-0.10881,-0.01171
0.46,-0.10476,-0.01165
0.461,-0.10151,-0.01155
0.462,-0.09905,-0.01142
0.463,-0.09731,-0.01124
0.464,-0.09616,-0.01102
0.465,-0.0954,-0.01077
0.466,-0.09481,-0.01049
0.467,-0.0942,-0.01021
0.468,-0.09339,-0.00995
0.469,-0.09229,-0.00974
0.47,-0.09081,-0.0096
0.471,-0.08896,-0.00954
0.472,-0.08684,-0.00958
0.473,-0.08457,-0.00973
0.474,-0.08245,-0.01
0.475,-0.08069,-0.01036
0.476,-0.07953,-0.01082
0.477,-0.07918,-0.01133
0.478,-0.07977,-0.01188
0.479,-0.08151,-0.01243
0.48,-0.08438,-0.01296
0.481,-0.08828,-0.01343
0.482,-0.093,-0.01383
0.483,-0.09817,-0.01411
0.484,-0.10351,-0.01429
0.485,-0.10856,-0.01435
0.486,-0.11288,-0.01428
0.487,-0.11599,-0.0141
0.488,-0.11742,-0.0138
0.489,-0.11691,-0.01341
0.49,-0.11425,-0.01293
0.491,-0.10938,-0.01237
0.492,-0.10232,-0.01176
0.493,-0.09322,-0.0111
0.494,-0.08251,-0.0104
0.495,-0.07064,-0.00969
0.496,-0.05815,-0.00897
0.497,-0.04559,-0.00827
0.498,-0.03354,-0.00759
0.499,-0.02264,-0.00695
0.5,-0.01336,-0.00638
0.501,-0.00604,-0.00588
0.502,-9.19E-04,-0.00547
0.503,0.00193,-0.00515
0.504,0.00246,-0.00492
0.505,9.53E-04,-0.00479
0.506,-0.00223,-0.00474
0.507,-0.00667,-0.00474
0.508,-0.01183,-0.00479
0.509,-0.01729,-0.00485
0.51,-0.02245,-0.00491
0.511,-0.02684,-0.00492
0.512,-0.03009,-0.00487
0.513,-0.03187,-0.00473
0.514,-0.03215,-0.00452
0.515,-0.03085,-0.00423
0.516,-0.02804,-0.00386
0.517,-0.02392,-0.00344
0.518,-0.01876,-0.00299
0.519,-0.01299,-0.00254
0.52,-0.00693,-0.00213
0.521,-9.25E-04,-0.00178
0.522,0.00471,-0.00152
0.523,0.0097,-0.00135
0.524,0.01383,-0.00128
0.525,0.01704,-0.00131
0.526,0.01934,-0.00141
0.527,0.02077,-0.00157
0.528,0.02144,-0.00175
0.529,0.02153,-0.00192
0.53,0.02127,-0.00206
0.531,0.02084,-0.00213
0.532,0.02039,-0.00213
0.533,0.02,-0.00204
0.534,0.01973,-0.00187
0.535,0.0196,-0.00163
0.536,0.01953,-0.00135
0.537,0.01939,-0.00105
0.538,0.01901,-7.69E-04
0.539,0.01817,-5.36E-04
0.54,0.01672,-3.77E-04
0.541,0.01454,-3.11E-04
0.542,0.01151,-3.46E-04
0.543,0.00762,-4.79E-04
0.544,0.00289,-7.00E-04
0.545,-0.00254,-9.84E-04
0.546,-0.00846,-0.0013
0.547,-0.01459,-0.00161
0.548,-0.02057,-0.00187
0.549,-0.02604,-0.00206
0.55,-0.03069,-0.00215
0.551,-0.03421,-0.0021
0.552,-0.03631,-0.00192
0.553,-0.03678,-0.00161
0.554,-0.03552,-0.00119
0.555,-0.03258,-6.68E-04
0.556,-0.02811,-9.10E-05
0.557,-0.0223,5.05E-04
0.558,-0.01547,0.00108
0.559,-0.00796,0.00159
0.56,-2.13E-04,0.002
0.561,0.00736,0.00228
0.562,0.01436,0.00242
0.563,0.02041,0.0024
0.564,0.02526,0.00222
0.565,0.02874,0.00191
0.566,0.03077,0.00148
0.567,0.03133,9.65E-04
0.568,0.03047,4.09E-04
0.569,0.0284,-1.51E-04
0.57,0.02537,-6.71E-04
0.571,0.02166,-0.00111
0.572,0.01753,-0.00144
0.573,0.0132,-0.00163
0.574,0.0089,-0.00166
0.575,0.00483,-0.00153
0.576,0.0011,-0.00125
0.577,-0.00225,-8.35E-04
0.578,-0.00521,-3.03E-04
0.579,-0.0079,3.02E-04
0.58,-0.0104,9.39E-04
0.581,-0.01284,0.00156
0.582,-0.0153,0.00214
0.583,-0.01786,0.00262
0.584,-0.0206,0.00297
0.585,-0.02353,0.00319
0.586,-0.02659,0.00326
0.587,-0.02967,0.00318
0.588,-0.03254,0.00298
0.589,-0.03498,0.00268
0.59,-0.03678,0.00233
0.591,-0.03771,0.00197
0.592,-0.03754,0.00165
0.593,-0.03611,0.0014
0.594,-0.03322,0.00126
0.595,-0.02889,0.00125
0.596,-0.02319,0.00138
0.597,-0.01627,0.00163
0.598,-0.00845,0.00199
0.599,7.00E-06,0.0024
0.6,0.00866,0.00283
0.601,0.01707,0.00321
0.602,0.02475,0.00349
0.603,0.03118,0.00362
0.604,0.03595,0.00357
0.605,0.03872,0.0033
0.606,0.03926,0.00283
0.607,0.03741,0.00215
0.608,0.0331,0.00132
0.609,0.02645,3.85E-04
0.61,0.01771,-5.88E-04
0.611,0.00725,-0.00152
0.612,-0.00449,-0.00235
0.613,-0.01696,-0.00301
0.614,-0.02962,-0.00343
0.615,-0.04185,-0.00359
0.616,-0.0531,-0.00347
0.617,-0.06286,-0.00308
0.618,-0.07061,-0.00246
0.619,-0.07605,-0.00165
0.62,-0.07896,-7.24E-04
0.621,-0.07928,2.35E-04
0.622,-0.07701,0.00115
0.623,-0.07229,0.00193
0.624,-0.0654,0.00252
0.625,-0.05679,0.00287
0.626,-0.04693,0.00294
0.627,-0.03629,0.00272
0.628,-0.02536,0.00222
0.629,-0.01467,0.00147
0.63,-0.00474,5.17E-04
0.631,0.00402,-5.75E-04
0.632,0.0113,-0.00174
0.633,0.01692,-0.00291
0.634,0.02073,-0.004
0.635,0.02274,-0.00498
0.636,0.02306,-0.00578
0.637,0.02188,-0.00638
0.638,0.01952,-0.00675
0.639,0.01626,-0.00688
0.64,0.01252,-0.00678
0.641,0.00868,-0.00647
0.642,0.00509,-0.00597
0.643,0.0021,-0.00532
0.644,-1.13E-04,-0.00454
0.645,-0.00129,-0.00369
0.646,-0.00132,-0.00278
0.647,-1.80E-04,-0.00186
0.648,0.00205,-9.39E-04
0.649,0.00518,-4.96E-05
0.65,0.00904,7.88E-04
0.651,0.01342,0.00156
0.652,0.01802,0.00226
0.653,0.02254,0.00287
0.654,0.0267,0.0034
0.655,0.03029,0.00384
0.656,0.03314,0.00419
0.657,0.03509,0.00446
0.658,0.03601,0.00463
0.659,0.03595,0.00472
0.66,0.03496,0.00473
0.661,0.03314,0.00466
0.662,0.03061,0.00453
0.663,0.02748,0.00432
0.664,0.02396,0.00405
0.665,0.0202,0.00372
0.666,0.01636,0.00334
0.667,0.01252,0.00292
0.668,0.00876,0.00248
0.669,0.0051,0.00201
0.67,0.00154,0.00155
0.671,-0.00196,0.0011
0.672,-0.00544,6.94E-04
0.673,-0.00892,3.39E-04
0.674,-0.01249,5.54E-05
0.675,-0.0162,-1.44E-04
0.676,-0.02005,-2.48E-04
0.677,-0.02398,-2.51E-04
0.678,-0.02782,-1.51E-04
0.679,-0.03146,4.48E-05
0.68,-0.03474,3.18E-04
0.681,-0.03748,6.49E-04
0.682,-0.0394,0.00101
0.683,-0.04019,0.00138
0.684,-0.03965,0.00174
0.685,-0.03763,0.00204
0.686,-0.03402,0.00228
0.687,-0.02878,0.00244
0.688,-0.02189,0.00252
0.689,-0.01352,0.00251
0.69,-0.00392,0.00244
0.691,0.00659,0.00233
0.692,0.01763,0.0022
0.693,0.02874,0.00207
0.694,0.03944,0.00198
0.695,0.04927,0.00195
0.696,0.05782,0.002
0.697,0.0647,0.00212
0.698,0.06963,0.00232
0.699,0.07236,0.00257
0.7,0.07289,0.00285
0.701,0.07133,0.00313
0.702,0.06782,0.00337
0.703,0.06264,0.00353
0.704,0.05612,0.00359
0.705,0.04878,0.00351
0.706,0.04113,0.00328
0.707,0.0336,0.00291
0.708,0.02663,0.00241
0.709,0.02059,0.0018
0.71,0.01583,0.00112
0.711,0.01256,4.17E-04
0.712,0.01087,-2.62E-04
0.713,0.01071,-8.70E-04
0.714,0.01194,-0.00136
0.715,0.01433,-0.00172
0.716,0.01759,-0.00191
0.717,0.02137,-0.00194
0.718,0.02528,-0.00181
0.719,0.02894,-0.00155
0.72,0.032,-0.00119
0.721,0.03418,-7.82E-04
0.722,0.03528,-3.57E-04
0.723,0.0352,4.26E-05
0.724,0.03394,3.80E-04
0.725,0.03155,6.27E-04
0.726,0.0282,7.66E-04
0.727,0.02413,7.97E-04
0.728,0.01967,7.29E-04
0.729,0.01516,5.81E-04
0.73,0.01091,3.79E-04
0.731,0.00724,1.54E-04
0.732,0.00442,-6.08E-05
0.733,0.00273,-2.32E-04
0.734,0.00227,-3.33E-04
0.735,0.00312,-3.48E-04
0.736,0.00523,-2.66E-04
0.737,0.00853,-8.80E-05
0.738,0.01286,1.80E-04
0.739,0.01794,5.18E-04
0.74,0.0235,9.06E-04
0.741,0.02923,0.00132
0.742,0.03486,0.00173
0.743,0.04013,0.00211
0.744,0.04475,0.00244
0.745,0.04856,0.0027
0.746,0.05142,0.00288
0.747,0.05332,0.00298
0.748,0.05428,0.00299
0.749,0.05436,0.00292
0.75,0.05375,0.00279
0.751,0.05265,0.00261
0.752,0.05126,0.00239
0.753,0.04982,0.00215
0.754,0.04854,0.00192
0.755,0.04765,0.0017
0.756,0.0473,0.00152
0.757,0.04759,0.00139
0.758,0.04854,0.00131
0.759,0.05011,0.00129
0.76,0.05223,0.00132
0.761,0.05478,0.00141
0.762,0.05757,0.00153
0.763,0.06036,0.00169
0.764,0.0629,0.00186
0.765,0.06498,0.00202
0.766,0.06641,0.00217
0.767,0.06703,0.00228
0.768,0.06673,0.00236
0.769,0.06543,0.00238
0.77,0.06316,0.00235
0.771,0.06001,0.00227
0.772,0.05611,0.00215
0.773,0.05169,0.00203
0.774,0.04698,0.0019
0.775,0.04224,0.0018
0.776,0.03773,0.00174
0.777,0.03373,0.00175
0.778,0.0305,0.00185
0.779,0.02821,0.00204
0.78,0.02699,0.00234
0.781,0.0269,0.00272
0.782,0.02796,0.00319
0.783,0.03013,0.00371
0.784,0.03325,0.00427
0.785,0.03712,0.00483
0.786,0.04152,0.00537
0.787,0.04621,0.00585
0.788,0.05097,0.00626
0.789,0.05551,0.00657
0.79,0.05962,0.00678
0.791,0.06313,0.00689
0.792,0.0659,0.00691
0.793,0.06791,0.00681
0.794,0.06912,0.00664
0.795,0.06962,0.0064
0.796,0.06951,0.0061
0.797,0.06895,0.00575
0.798,0.06811,0.00535
0.799,0.06719,0.0049
0.8,0.0664,0.0044
0.801,0.06592,0.00384
0.802,0.06586,0.00321
0.803,0.06629,0.00251
0.804,0.06722,0.00173
0.805,0.06868,8.79E-04
0.806,0.07058,-2.61E-05
0.807,0.07276,-9.64E-04
0.808,0.075,-0.0019
0.809,0.07711,-0.00279
0.81,0.07888,-0.0036
0.811,0.08011,-0.00427
0.812,0.08061,-0.00478
0.813,0.08016,-0.00508
0.814,0.07869,-0.00514
0.815,0.07614,-0.00495
0.816,0.07255,-0.00453
0.817,0.06798,-0.0039
0.818,0.06254,-0.00308
0.819,0.05645,-0.00213
0.82,0.04991,-0.00111
0.821,0.04317,-7.33E-05
0.822,0.03647,9.06E-04
0.823,0.03009,0.00177
0.824,0.02428,0.00248
0.825,0.0192,0.00299
0.826,0.01501,0.00329
0.827,0.01182,0.00336
0.828,0.00971,0.00322
0.829,0.00874,0.00289
0.83,0.00882,0.00241
0.831,0.00987,0.00182
0.832,0.0118,0.00116
0.833,0.01451,4.67E-04
0.834,0.01788,-2.18E-04
0.835,0.02175,-8.60E-04
0.836,0.02595,-0.00144
0.837,0.03036,-0.00194
0.838,0.03481,-0.00237
0.839,0.03924,-0.00272
0.84,0.04351,-0.00301
0.841,0.0475,-0.00325
0.842,0.05111,-0.00345
0.843,0.0542,-0.00364
0.844,0.05673,-0.00382
0.845,0.05861,-0.004
0.846,0.05977,-0.00418
0.847,0.06013,-0.00437
0.848,0.05961,-0.00455
0.849,0.05819,-0.0047
0.85,0.05591,-0.00481
0.851,0.05281,-0.00488
0.852,0.04892,-0.00488
0.853,0.04431,-0.0048
0.854,0.03911,-0.00463
0.855,0.03351,-0.00437
0.856,0.02769,-0.00401
0.857,0.02182,-0.00356
0.858,0.01608,-0.00304
0.859,0.01069,-0.00246
0.86,0.00582,-0.00186
0.861,0.0016,-0.00126
0.862,-0.00186,-6.89E-04
0.863,-0.00451,-1.88E-04
0.864,-0.00629,2.10E-04
0.865,-0.00726,4.77E-04
0.866,-0.00752,5.91E-04
0.867,-0.00717,5.33E-04
0.868,-0.00637,2.98E-04
0.869,-0.00522,-1.15E-04
0.87,-0.00397,-6.86E-04
0.871,-0.00278,-0.00139
0.872,-0.0018,-0.00219
0.873,-0.00114,-0.00303
0.874,-8.56E-04,-0.00388
0.875,-0.00105,-0.00468
0.876,-0.00174,-0.00537
0.877,-0.00286,-0.00591
0.878,-0.00428,-0.00627
0.879,-0.00593,-0.00642
0.88,-0.00769,-0.00635
0.881,-0.00943,-0.00607
0.882,-0.01098,-0.00559
0.883,-0.01209,-0.00495
0.884,-0.01272,-0.00419
0.885,-0.01275,-0.00335
0.886,-0.01211,-0.00249
0.887,-0.01072,-0.00165
0.888,-0.00847,-8.71E-04
0.889,-0.00544,-1.81E-04
0.89,-0.00165,3.98E-04
0.891,0.00285,8.58E-04
0.892,0.00802,0.00121
0.893,0.01382,0.00146
0.894,0.02011,0.00164
0.895,0.0268,0.00177
0.896,0.03382,0.00188
0.897,0.04105,0.00199
0.898,0.04838,0.00213
0.899,0.05562,0.00229
0.9,0.06267,0.00248
0.901,0.06941,0.0027
0.902,0.07567,0.00292
0.903,0.08128,0.00315
0.904,0.08599,0.00333
0.905,0.08971,0.00347
0.906,0.09232,0.00356
0.907,0.0937,0.00358
0.908,0.09377,0.00354
0.909,0.0924,0.00346
0.91,0.08971,0.00335
0.911,0.08581,0.00325
0.912,0.08084,0.00319
0.913,0.07507,0.00321
0.914,0.06868,0.00333
0.915,0.0621,0.00357
0.916,0.05567,0.00396
0.917,0.04978,0.00449
0.918,0.0448,0.00514
0.919,0.04101,0.0059
0.92,0.03872,0.00671
0.921,0.0381,0.00755
0.922,0.03924,0.00836
0.923,0.04212,0.00908
0.924,0.04661,0.00966
0.925,0.05245,0.01007
0.926,0.05933,0.01027
0.927,0.06685,0.01025
0.928,0.07452,0.00998
0.929,0.0819,0.00947
0.93,0.08849,0.00876
0.931,0.09388,0.00787
0.932,0.09772,0.00684
0.933,0.09974,0.00571
0.934,0.09982,0.00452
0.935,0.09792,0.00334
0.936,0.09417,0.0022
0.937,0.08878,0.00115
0.938,0.0821,2.07E-04
0.939,0.07453,-5.91E-04
0.94,0.06654,-0.00123
0.941,0.05861,-0.00172
0.942,0.05122,-0.00204
0.943,0.04483,-0.00221
0.944,0.03978,-0.00225
0.945,0.03635,-0.00217
0.946,0.03471,-0.00202
0.947,0.03491,-0.00182
0.948,0.03694,-0.00158
0.949,0.04059,-0.00133
0.95,0.04559,-0.00111
0.951,0.05162,-9.27E-04
0.952,0.05835,-7.94E-04
0.953,0.06541,-7.08E-04
0.954,0.07238,-6.63E-04
0.955,0.07886,-6.56E-04
0.956,0.08456,-6.71E-04
0.957,0.08928,-6.88E-04
0.958,0.09293,-6.76E-04
0.959,0.09538,-6.16E-04
0.96,0.09665,-4.92E-04
0.961,0.09682,-2.92E-04
0.962,0.0961,-4.76E-06
0.963,0.09476,3.75E-04
0.964,0.09308,8.34E-04
0.965,0.09144,0.00136
0.966,0.09016,0.00193
0.967,0.08948,0.00252
0.968,0.08959,0.0031
0.969,0.09092,0.00365
0.97,0.09373,0.00415
0.971,0.09816,0.00459
0.972,0.10409,0.00496
0.973,0.11097,0.00525
0.974,0.11909,0.00548
0.975,0.12819,0.00567
0.976,0.1379,0.00585
0.977,0.14748,0.00602
0.978,0.15551,0.00618
0.979,0.16195,0.00636
0.98,0.16594,0.00655
0.981,0.1667,0.00675
0.982,0.16315,0.00692
0.983,0.15372,0.007
0.984,0.13831,0.00697
0.985,0.11619,0.00677
0.986,0.08693,0.00635
0.987,0.05018,0.00567
0.988,0.00559,0.00467
0.989,-0.04604,0.00334
0.99,-0.10423,0.00167
0.991,-0.16807,-3.04E-04
0.992,-0.23627,-0.00255
0.993,-0.30706,-0.00501
0.994,-0.37839,-0.00758
0.995,-0.44852,-0.01018
0.996,-0.51552,-0.01271
0.997,-0.57711,-0.01505
0.998,-0.63067,-0.01709
0.999,-0.67419,-0.01874
1,-0.70656,-0.01993
1.001,-0.72678,-0.02063
1.002,-0.73377,-0.02079
1.003,-0.72656,-0.02041
1.004,-0.70525,-0.0195
1.005,-0.67118,-0.01813
1.006,-0.62572,-0.01637
1.007,-0.57021,-0.01429
1.008,-0.50619,-0.01198
1.009,-0.43595,-0.00953
1.01,-0.36242,-0.00706
1.011,-0.28813,-0.00464
1.012,-0.21531,-0.00236
1.013,-0.14595,-2.86E-04
1.014,-0.08224,0.00152
1.015,-0.02576,0.00303
1.016,0.02237,0.0042
1.017,0.06151,0.00504
1.018,0.09154,0.00554
1.019,0.11219,0.0057
1.02,0.12455,0.00558
1.021,0.12971,0.0052
1.022,0.12881,0.00461
1.023,0.12328,0.00384
1.024,0.11387,0.00293
1.025,0.1027,0.00195
1.026,0.09122,9.38E-04
1.027,0.08044,-6.39E-05
1.028,0.07128,-0.00102
1.029,0.06364,-0.00191
1.03,0.05848,-0.0027
1.031,0.05601,-0.00337
1.032,0.05602,-0.00391
1.033,0.05813,-0.00431
1.034,0.06136,-0.00458
1.035,0.06545,-0.00472
1.036,0.0699,-0.00474
1.037,0.07416,-0.00463
1.038,0.07772,-0.00442
1.039,0.08005,-0.0041
1.04,0.08102,-0.00369
1.041,0.08063,-0.00321
1.042,0.07897,-0.00266
1.043,0.07628,-0.00206
1.044,0.07292,-0.00143
1.045,0.06924,-7.83E-04
1.046,0.06564,-1.57E-04
1.047,0.06254,4.29E-04
1.048,0.06029,9.48E-04
1.049,0.05919,0.00137
1.05,0.05938,0.00167
1.051,0.06087,0.00183
1.052,0.06356,0.00182
1.053,0.06726,0.00166
1.054,0.07169,0.00135
1.055,0.0765,9.02E-04
1.056,0.08131,3.56E-04
1.057,0.08573,-2.49E-04
1.058,0.0894,-8.60E-04
1.059,0.09201,-0.00143
1.06,0.09339,-0.00189
1.061,0.09342,-0.00221
1.062,0.09212,-0.00233
1.063,0.08957,-0.00223
1.064,0.08598,-0.00191
1.065,0.08161,-0.00136
1.066,0.0768,-6.06E-04
1.067,0.07187,3.03E-04
1.068,0.06719,0.00131
1.069,0.06307,0.00236
1.07,0.05974,0.00338
1.071,0.0574,0.0043
1.072,0.05615,0.00506
1.073,0.05602,0.0056
1.074,0.05694,0.0059
1.075,0.05876,0.00594
1.076,0.0613,0.00573
1.077,0.06432,0.00527
1.078,0.06759,0.00461
1.079,0.07086,0.00378
1.08,0.07392,0.00286
1.081,0.07659,0.00189
1.082,0.07875,9.39E-04
1.083,0.08032,4.42E-05
1.084,0.08132,-7.48E-04
1.085,0.0818,-0.00141
1.086,0.08185,-0.00192
1.087,0.08158,-0.00227
1.088,0.08109,-0.00248
1.089,0.08056,-0.00255
1.09,0.08009,-0.0025
1.091,0.07976,-0.00237
1.092,0.0796,-0.00217
1.093,0.07956,-0.00192
1.094,0.07963,-0.00166
1.095,0.07971,-0.00139
1.096,0.07969,-0.00113
1.097,0.07942,-8.89E-04
1.098,0.07874,-6.65E-04
1.099,0.07754,-4.58E-04
1.1,0.07575,-2.74E-04
1.101,0.07332,-1.12E-04
1.102,0.07023,3.36E-05
1.103,0.06654,1.71E-04
1.104,0.0624,3.01E-04
1.105,0.05798,4.27E-04
1.106,0.05348,5.50E-04
1.107,0.04913,6.76E-04
1.108,0.04511,8.13E-04
1.109,0.04175,9.62E-04
1.11,0.03921,0.00113
1.111,0.03764,0.00133
1.112,0.0371,0.00156
1.113,0.03753,0.00183
1.114,0.03896,0.00212
1.115,0.04121,0.00245
1.116,0.04404,0.00281
1.117,0.04716,0.00319
1.118,0.05018,0.00358
1.119,0.05284,0.00395
1.12,0.05478,0.0043
1.121,0.05567,0.00461
1.122,0.05525,0.00486
1.123,0.05327,0.00502
1.124,0.04971,0.00509
1.125,0.04452,0.00505
1.126,0.0378,0.00489
1.127,0.02973,0.00461
1.128,0.02056,0.0042
1.129,0.01071,0.00366
1.13,5.77E-04,0.003
1.131,-0.00945,0.00222
1.132,-0.01893,0.00135
1.133,-0.02744,3.82E-04
1.134,-0.03457,-6.43E-04
1.135,-0.04007,-0.0017
1.136,-0.04376,-0.00277
1.137,-0.04554,-0.00382
1.138,-0.04542,-0.00481
1.139,-0.04344,-0.00569
1.14,-0.03987,-0.00644
1.141,-0.03502,-0.00703
1.142,-0.02923,-0.00743
1.143,-0.02294,-0.00762
1.144,-0.01645,-0.00758
1.145,-0.01023,-0.00733
1.146,-0.00465,-0.00688
1.147,-2.48E-05,-0.00626
1.148,0.00334,-0.00551
1.149,0.0054,-0.00467
1.15,0.00602,-0.00383
1.151,0.00522,-0.00303
1.152,0.00306,-0.00233
1.153,-3.54E-04,-0.0018
1.154,-0.00475,-0.00146
1.155,-0.00988,-0.00135
1.156,-0.01552,-0.00149
1.157,-0.02142,-0.00186
1.158,-0.02738,-0.00244
1.159,-0.03318,-0.00319
1.16,-0.03865,-0.00404
1.161,-0.04367,-0.00495
1.162,-0.04821,-0.00583
1.163,-0.05223,-0.00663
1.164,-0.05574,-0.00728
1.165,-0.05879,-0.00773
1.166,-0.06145,-0.00796
1.167,-0.06376,-0.00795
1.168,-0.0658,-0.00769
1.169,-0.06755,-0.0072
1.17,-0.06908,-0.00652
1.171,-0.07041,-0.0057
1.172,-0.07149,-0.00477
1.173,-0.07231,-0.0038
1.174,-0.07272,-0.00283
1.175,-0.07274,-0.00192
1.176,-0.07232,-0.00111
1.177,-0.07144,-4.16E-04
1.178,-0.07012,1.35E-04
1.179,-0.06829,5.32E-04
1.18,-0.06606,7.78E-04
1.181,-0.06354,8.82E-04
1.182,-0.06087,8.62E-04
1.183,-0.05826,7.40E-04
1.184,-0.05582,5.34E-04
1.185,-0.05377,2.73E-04
1.186,-0.05229,-1.84E-05
1.187,-0.05158,-3.19E-04
1.188,-0.05184,-6.06E-04
1.189,-0.0531,-8.67E-04
1.19,-0.05543,-0.00108
1.191,-0.05883,-0.00123
1.192,-0.06326,-0.0013
1.193,-0.06862,-0.0013
1.194,-0.07472,-0.00121
1.195,-0.08134,-0.00104
1.196,-0.08825,-7.91E-04
1.197,-0.09521,-4.66E-04
1.198,-0.10195,-8.82E-05
1.199,-0.10819,3.26E-04
1.2,-0.11374,7.57E-04
1.201,-0.11841,0.00118
1.202,-0.12209,0.00157
1.203,-0.12467,0.00188
1.204,-0.12608,0.00211
1.205,-0.1264,0.00223
1.206,-0.12572,0.00222
1.207,-0.12417,0.00207
1.208,-0.1219,0.00178
1.209,-0.11904,0.00136
1.21,-0.11584,8.10E-04
1.211,-0.11248,1.60E-04
1.212,-0.10915,-5.73E-04
1.213,-0.10604,-0.00136
1.214,-0.10322,-0.00218
1.215,-0.10084,-0.00299
1.216,-0.09899,-0.00378
1.217,-0.09772,-0.00451
1.218,-0.09707,-0.00517
1.219,-0.09702,-0.00574
1.22,-0.09757,-0.00619
1.221,-0.0987,-0.00654
1.222,-0.10038,-0.00675
1.223,-0.10255,-0.00685
1.224,-0.10519,-0.00681
1.225,-0.10822,-0.00666
1.226,-0.1116,-0.00641
1.227,-0.11525,-0.00606
1.228,-0.11905,-0.00564
1.229,-0.12294,-0.00516
1.23,-0.12678,-0.00465
1.231,-0.13045,-0.00415
1.232,-0.1338,-0.00368
1.233,-0.13664,-0.00326
1.234,-0.13883,-0.00292
1.235,-0.14024,-0.00268
1.236,-0.14074,-0.00255
1.237,-0.14022,-0.00253
1.238,-0.13862,-0.00262
1.239,-0.13592,-0.00279
1.24,-0.1322,-0.00303
1.241,-0.12758,-0.0033
1.242,-0.12221,-0.00355
1.243,-0.11631,-0.00375
1.244,-0.11016,-0.00386
1.245,-0.10407,-0.00386
1.246,-0.09837,-0.00371
1.247,-0.09333,-0.0034
1.248,-0.08922,-0.00293
1.249,-0.08629,-0.00234
1.25,-0.08469,-0.00163
1.251,-0.0845,-8.56E-04
1.252,-0.0857,-5.77E-05
1.253,-0.08814,7.14E-04
1.254,-0.0917,0.0014
1.255,-0.09606,0.00198
1.256,-0.10088,0.0024
1.257,-0.1058,0.00265
1.258,-0.11038,0.00272
1.259,-0.11432,0.00261
1.26,-0.11725,0.00236
1.261,-0.11891,0.00201
1.262,-0.1191,0.00158
1.263,-0.11769,0.00112
1.264,-0.11479,6.77E-04
1.265,-0.11051,2.95E-04
1.266,-0.10508,2.47E-06
1.267,-0.09878,-1.81E-04
1.268,-0.09191,-2.49E-04
1.269,-0.08497,-2.12E-04
1.27,-0.07833,-8.61E-05
1.271,-0.07236,1.03E-04
1.272,-0.06733,3.22E-04
1.273,-0.0634,5.38E-04
1.274,-0.06078,7.09E-04
1.275,-0.05945,8.05E-04
1.276,-0.05933,8.02E-04
1.277,-0.06017,6.91E-04
1.278,-0.06164,4.78E-04
1.279,-0.06347,1.65E-04
1.28,-0.06524,-2.30E-04
1.281,-0.06655,-6.79E-04
1.282,-0.06703,-0.00114
1.283,-0.06631,-0.00157
1.284,-0.0643,-0.00192
1.285,-0.06083,-0.00216
1.286,-0.05588,-0.00226
1.287,-0.04957,-0.00217
1.288,-0.04207,-0.00187
1.289,-0.03383,-0.00136
1.29,-0.02517,-6.28E-04
1.291,-0.01651,3.16E-04
1.292,-0.00826,0.00145
1.293,-7.90E-04,0.00275
1.294,0.00543,0.00416
1.295,0.01021,0.00565
1.296,0.01341,0.00716
1.297,0.015,0.00863
1.298,0.01511,0.01
1.299,0.01381,0.01121
1.3,0.01147,0.01222
1.301,0.00847,0.01298
1.302,0.0052,0.01345
1.303,0.00213,0.01362
1.304,-4.48E-04,0.01347
1.305,-0.00213,0.01301
1.306,-0.00266,0.01229
1.307,-0.00185,0.01134
1.308,3.52E-04,0.01019
1.309,0.00381,0.00891
1.31,0.0084,0.00758
1.311,0.01389,0.00625
1.312,0.01995,0.005
1.313,0.02623,0.00386
1.314,0.03229,0.00289
1.315,0.03781,0.00212
1.316,0.04251,0.00157
1.317,0.04617,0.00124
1.318,0.04862,0.0011
1.319,0.04978,0.00115
1.32,0.04974,0.00133
1.321,0.04864,0.00161
1.322,0.04669,0.00194
1.323,0.04413,0.00227
1.324,0.04123,0.00257
1.325,0.03832,0.00279
1.326,0.03566,0.0029
1.327,0.03347,0.00288
1.328,0.03188,0.00273
1.329,0.03095,0.00245
1.33,0.03072,0.00205
1.331,0.0311,0.00154
1.332,0.03195,9.41E-04
1.333,0.03308,2.96E-04
1.334,0.03424,-3.59E-04
1.335,0.03521,-9.90E-04
1.336,0.03579,-0.00156
1.337,0.03582,-0.00204
1.338,0.03519,-0.00238
1.339,0.03383,-0.00254
1.34,0.03178,-0.00252
1.341,0.02913,-0.00228
1.342,0.02605,-0.00182
1.343,0.0228,-0.00114
1.344,0.01963,-2.63E-04
1.345,0.0168,7.86E-04
1.346,0.01456,0.00197
1.347,0.01316,0.00322
1.348,0.01279,0.0045
1.349,0.01357,0.00571
1.35,0.01552,0.0068
1.351,0.01859,0.00769
1.352,0.02265,0.00834
1.353,0.0275,0.00868
1.354,0.03288,0.0087
1.355,0.03847,0.0084
1.356,0.04398,0.00777
1.357,0.04906,0.00687
1.358,0.05342,0.00576
1.359,0.0568,0.0045
1.36,0.05902,0.0032
1.361,0.05998,0.00194
1.362,0.05963,8.21E-04
1.363,0.05802,-8.19E-05
1.364,0.05527,-6.98E-04
1.365,0.05157,-9.78E-04
1.366,0.04717,-9.02E-04
1.367,0.04234,-4.76E-04
1.368,0.03738,2.61E-04
1.369,0.03255,0.00125
1.37,0.02813,0.00243
1.371,0.02435,0.00369
1.372,0.02137,0.00494
1.373,0.01933,0.00607
1.374,0.01826,0.00701
1.375,0.01817,0.00767
1.376,0.01901,0.008
1.377,0.02066,0.00797
1.378,0.02297,0.00756
1.379,0.02581,0.00679
1.38,0.02896,0.00572
1.381,0.03225,0.0044
1.382,0.03551,0.0029
1.383,0.03857,0.00132
1.384,0.04132,-2.68E-04
1.385,0.04364,-0.00177
1.386,0.04546,-0.0031
1.387,0.04671,-0.00421
1.388,0.04737,-0.00503
1.389,0.04745,-0.00554
1.39,0.04696,-0.00573
1.391,0.04593,-0.00561
1.392,0.0444,-0.0052
1.393,0.04243,-0.00453
1.394,0.04008,-0.00367
1.395,0.03744,-0.00267
1.396,0.03457,-0.00161
1.397,0.03157,-5.49E-04
1.398,0.02852,4.71E-04
1.399,0.02552,0.00139
1.4,0.02268,0.00216
1.401,0.0201,0.00277
1.402,0.01787,0.0032
1.403,0.0161,0.00347
1.404,0.01485,0.0036
1.405,0.01419,0.00362
1.406,0.01415,0.00359
1.407,0.01474,0.00355
1.408,0.01593,0.00356
1.409,0.01768,0.00365
1.41,0.01989,0.00389
1.411,0.02243,0.00429
1.412,0.02517,0.00486
1.413,0.02793,0.00558
1.414,0.03059,0.00642
1.415,0.03296,0.00735
1.416,0.03488,0.0083
1.417,0.03624,0.00921
1.418,0.03693,0.00997
1.419,0.0369,0.01053
1.42,0.03615,0.0108
1.421,0.03471,0.01076
1.422,0.03265,0.01035
1.423,0.03005,0.00957
1.424,0.0271,0.00842
1.425,0.02396,0.00696
1.426,0.02081,0.00524
1.427,0.01783,0.00335
1.428,0.01514,0.00139
1.429,0.01292,-5.49E-04
1.43,0.01128,-0.00235
1.431,0.01029,-0.00393
1.432,0.00993,-0.00519
1.433,0.01017,-0.00608
1.434,0.01095,-0.00653
1.435,0.01213,-0.00656
1.436,0.01356,-0.00615
1.437,0.01507,-0.00536
1.438,0.01645,-0.00423
1.439,0.01752,-0.00282
1.44,0.01811,-0.00123
1.441,0.01807,4.46E-04
1.442,0.01729,0.00213
1.443,0.01574,0.00371
1.444,0.01344,0.00514
1.445,0.01041,0.00633
1.446,0.00678,0.00724
1.447,0.00271,0.00783
1.448,-0.00157,0.00808
1.449,-0.00581,0.008
1.45,-0.00978,0.00762
1.451,-0.01324,0.00695
1.452,-0.01596,0.00605
1.453,-0.01773,0.00497
1.454,-0.01839,0.00377
1.455,-0.01788,0.00252
1.456,-0.01618,0.00129
1.457,-0.01334,1.45E-04
1.458,-0.00948,-8.76E-04
1.459,-0.00479,-0.00172
1.46,4.87E-04,-0.00236
1.461,0.00607,-0.00277
1.462,0.01166,-0.00295
1.463,0.01694,-0.00291
1.464,0.02164,-0.00269
1.465,0.02549,-0.00232
1.466,0.0283,-0.00184
1.467,0.02993,-0.00132
1.468,0.0303,-8.02E-04
1.469,0.02943,-3.43E-04
1.47,0.02741,1.06E-05
1.471,0.0244,2.23E-04
1.472,0.02061,2.73E-04
1.473,0.01627,1.44E-04
1.474,0.01166,-1.44E-04
1.475,0.00709,-5.80E-04
1.476,0.00283,-0.00114
1.477,-8.97E-04,-0.00178
1.478,-0.00392,-0.00246
1.479,-0.0061,-0.00315
1.48,-0.00739,-0.0038
1.481,-0.00778,-0.00439
1.482,-0.00737,-0.0049
1.483,-0.00627,-0.00531
1.484,-0.0047,-0.00563
1.485,-0.00286,-0.00587
1.486,-9.95E-04,-0.00604
1.487,7.01E-04,-0.00617
1.488,0.00204,-0.00626
1.489,0.00286,-0.00633
1.49,0.00305,-0.0064
1.491,0.00254,-0.00647
1.492,0.00138,-0.00653
1.493,-3.12E-04,-0.00657
1.494,-0.00241,-0.00656
1.495,-0.00474,-0.00648
1.496,-0.0071,-0.00631
1.497,-0.00926,-0.00603
1.498,-0.01094,-0.0056
1.499,-0.01197,-0.00503
1.5,-0.01219,-0.00432
1.501,-0.01149,-0.00348
1.502,-0.00983,-0.00253
1.503,-0.0072,-0.00152
1.504,-0.00369,-4.70E-04
1.505,5.44E-04,5.55E-04
1.506,0.00533,0.00151
1.507,0.01044,0.00235
1.508,0.01563,0.00304
1.509,0.02064,0.00353
1.51,0.02526,0.0038
1.511,0.02928,0.00386
1.512,0.03257,0.00371
1.513,0.03497,0.00336
1.514,0.03646,0.00283
1.515,0.03705,0.00217
1.516,0.03683,0.00142
1.517,0.03588,6.39E-04
1.518,0.03431,-1.36E-04
1.519,0.03228,-8.62E-04
1.52,0.02997,-0.00149
1.521,0.02755,-0.00199
1.522,0.02512,-0.00232
1.523,0.02278,-0.00248
1.524,0.02057,-0.00247
1.525,0.01856,-0.00229
1.526,0.01672,-0.00195
1.527,0.01503,-0.00148
1.528,0.01343,-9.03E-04
1.529,0.01182,-2.73E-04
1.53,0.01016,3.69E-04
1.531,0.00838,9.82E-04
1.532,0.00645,0.00153
1.533,0.00439,0.00198
1.534,0.00223,0.0023
1.535,7.15E-06,0.00249
1.536,-0.00219,0.00253
1.537,-0.00422,0.00244
1.538,-0.00596,0.00225
1.539,-0.00722,0.00198
1.54,-0.00791,0.0017
1.541,-0.00793,0.00143
1.542,-0.00719,0.00124
1.543,-0.00565,0.00117
1.544,-0.00329,0.00126
1.545,-1.82E-04,0.00153
1.546,0.00356,0.00201
1.547,0.00779,0.00268
1.548,0.01229,0.00352
1.549,0.01687,0.00449
1.55,0.0213,0.00553
1.551,0.02535,0.00659
1.552,0.02879,0.0076
1.553,0.03139,0.0085
1.554,0.03301,0.00922
1.555,0.03355,0.00971
1.556,0.03295,0.00996
1.557,0.0312,0.00996
1.558,0.02835,0.0097
1.559,0.0245,0.00923
1.56,0.01983,0.00859
1.561,0.01453,0.00785
1.562,0.00883,0.00707
1.563,0.00302,0.00632
1.564,-0.0027,0.00566
1.565,-0.00803,0.00515
1.566,-0.01278,0.00483
1.567,-0.01671,0.00472
1.568,-0.01963,0.00481
1.569,-0.02145,0.00508
1.57,-0.02211,0.0055
1.571,-0.02159,0.00602
1.572,-0.01994,0.00658
1.573,-0.0172,0.00712
1.574,-0.01353,0.00756
1.575,-0.00913,0.00786
1.576,-0.00421,0.00798
1.577,0.00102,0.00789
1.578,0.00636,0.00757
1.579,0.01158,0.00704
1.58,0.01648,0.00631
1.581,0.02088,0.00544
1.582,0.02466,0.00446
1.583,0.02773,0.00343
1.584,0.03007,0.00243
1.585,0.0317,0.00149
1.586,0.03267,6.79E-04
1.587,0.03307,3.28E-05
1.588,0.03299,-4.22E-04
1.589,0.03257,-6.60E-04
1.59,0.03198,-6.86E-04
1.591,0.03137,-5.17E-04
1.592,0.03081,-1.81E-04
1.593,0.03035,2.82E-04
1.594,0.03001,8.26E-04
1.595,0.02983,0.00139
1.596,0.02976,0.00192
1.597,0.02972,0.00236
1.598,0.02958,0.00267
1.599,0.02919,0.00281
1.6,0.02843,0.00275
1.601,0.0272,0.00249
1.602,0.02541,0.00204
1.603,0.02302,0.00143
1.604,0.02001,6.96E-04
1.605,0.01645,-1.01E-04
1.606,0.01245,-9.04E-04
1.607,0.00819,-0.00164
1.608,0.00389,-0.00225
1.609,-1.79E-04,-0.00267
1.61,-0.00377,-0.00284
1.611,-0.00664,-0.00274
1.612,-0.00854,-0.00236
1.613,-0.0093,-0.00171
1.614,-0.00875,-8.08E-04
1.615,-0.0069,2.81E-04
1.616,-0.00379,0.00149
1.617,4.50E-04,0.00276
1.618,0.0056,0.00398
1.619,0.0114,0.00507
1.62,0.01746,0.00597
1.621,0.02344,0.00661
1.622,0.02896,0.00696
1.623,0.03366,0.00699
1.624,0.03724,0.0067
1.625,0.0395,0.00613
1.626,0.04029,0.00532
1.627,0.03958,0.00433
1.628,0.03743,0.00325
1.629,0.03402,0.00215
1.63,0.02965,0.0011
1.631,0.02465,1.66E-04
1.632,0.01937,-5.93E-04
1.633,0.01417,-0.00114
1.634,0.00944,-0.00147
1.635,0.00553,-0.00158
1.636,0.00266,-0.00149
1.637,9.91E-04,-0.00124
1.638,5.16E-04,-8.60E-04
1.639,0.0012,-4.14E-04
1.64,0.00287,5.23E-05
1.641,0.00527,4.96E-04
1.642,0.00806,8.80E-04
1.643,0.01084,0.00118
1.644,0.01326,0.00138
1.645,0.01494,0.00147
1.646,0.01558,0.00147
1.647,0.01495,0.00138
1.648,0.01294,0.00123
1.649,0.00955,0.00105
1.65,0.00487,8.51E-04
1.651,-9.04E-04,6.48E-04
1.652,-0.00746,4.57E-04
1.653,-0.0144,2.84E-04
1.654,-0.02128,1.36E-04
1.655,-0.02769,8.49E-06
1.656,-0.03326,-1.05E-04
1.657,-0.03762,-2.15E-04
1.658,-0.04049,-3.31E-04
1.659,-0.04167,-4.57E-04
1.66,-0.04112,-5.96E-04
1.661,-0.03892,-7.49E-04
1.662,-0.03522,-9.14E-04
1.663,-0.03029,-0.00109
1.664,-0.02443,-0.00127
1.665,-0.01805,-0.00143
1.666,-0.01157,-0.00158
1.667,-0.00536,-0.0017
1.668,1.71E-04,-0.0018
1.669,0.00476,-0.00186
1.67,0.00817,-0.0019
1.671,0.01026,-0.00192
1.672,0.01098,-0.00194
1.673,0.01033,-0.00196
1.674,0.00846,-0.002
1.675,0.00555,-0.00208
1.676,0.00184,-0.00222
1.677,-0.00244,-0.00242
1.678,-0.00706,-0.0027
1.679,-0.01176,-0.00306
1.68,-0.01633,-0.00349
1.681,-0.0206,-0.004
1.682,-0.02445,-0.00457
1.683,-0.02782,-0.00517
1.684,-0.03072,-0.00579
1.685,-0.03317,-0.00639
1.686,-0.03523,-0.00694
1.687,-0.03697,-0.00741
1.688,-0.03841,-0.00776
1.689,-0.03968,-0.00795
1.69,-0.04085,-0.00797
1.691,-0.04196,-0.0078
1.692,-0.04297,-0.00743
1.693,-0.04375,-0.00685
1.694,-0.04427,-0.00609
1.695,-0.04448,-0.00518
1.696,-0.04426,-0.00416
1.697,-0.04345,-0.00308
1.698,-0.04184,-0.00199
1.699,-0.03938,-9.51E-04
1.7,-0.036,-2.52E-05
1.701,-0.03169,7.38E-04
1.702,-0.0264,0.0013
1.703,-0.02013,0.00163
1.704,-0.01304,0.00171
1.705,-0.00526,0.00157
1.706,0.00304,0.00122
1.707,0.01165,7.06E-04
1.708,0.02037,8.74E-05
1.709,0.02887,-5.78E-04
1.71,0.03696,-0.00122
1.711,0.04444,-0.00176
1.712,0.0511,-0.00216
1.713,0.05681,-0.00237
1.714,0.06132,-0.00238
1.715,0.06466,-0.00216
1.716,0.06683,-0.00175
1.717,0.06785,-0.00117
1.718,0.06781,-4.82E-04
1.719,0.06673,2.56E-04
1.72,0.06486,9.78E-04
1.721,0.0624,0.00162
1.722,0.05955,0.00212
1.723,0.05654,0.00243
1.724,0.05347,0.00252
1.725,0.05061,0.00237
1.726,0.04815,0.002
1.727,0.04624,0.00144
1.728,0.04499,7.09E-04
1.729,0.04439,-1.26E-04
1.73,0.0445,-0.00101
1.731,0.04533,-0.00188
1.732,0.04681,-0.0027
1.733,0.04888,-0.00341
1.734,0.05138,-0.00398
1.735,0.05418,-0.0044
1.736,0.05713,-0.00467
1.737,0.06012,-0.0048
1.738,0.06302,-0.00481
1.739,0.06569,-0.00473
1.74,0.06805,-0.00459
1.741,0.07005,-0.00445
1.742,0.07167,-0.00433
1.743,0.07292,-0.00423
1.744,0.07383,-0.00419
1.745,0.07448,-0.00421
1.746,0.07495,-0.00429
1.747,0.07534,-0.00439
1.748,0.07572,-0.00449
1.749,0.07615,-0.00457
1.75,0.07672,-0.00458
1.751,0.07745,-0.00449
1.752,0.07833,-0.00428
1.753,0.07933,-0.00391
1.754,0.08034,-0.00337
1.755,0.08129,-0.00266
1.756,0.08205,-0.00177
1.757,0.08253,-7.44E-04
1.758,0.08263,4.09E-04
1.759,0.0822,0.00164
1.76,0.08122,0.00291
1.761,0.07968,0.00416
1.762,0.07761,0.00535
1.763,0.07515,0.00641
1.764,0.07238,0.0073
1.765,0.06952,0.00798
1.766,0.06679,0.00842
1.767,0.06442,0.0086
1.768,0.06269,0.00851
1.769,0.06177,0.00815
1.77,0.06181,0.00756
1.771,0.0629,0.00677
1.772,0.06512,0.00584
1.773,0.06847,0.00481
1.774,0.07276,0.00375
1.775,0.07778,0.00273
1.776,0.08325,0.0018
1.777,0.08891,0.00102
1.778,0.09453,4.32E-04
1.779,0.09975,5.33E-05
1.78,0.10436,-9.86E-05
1.781,0.10819,-2.93E-05
1.782,0.11112,2.40E-04
1.783,0.1131,6.73E-04
1.784,0.1144,0.00123
1.785,0.11532,0.00187
1.786,0.11618,0.00253
1.787,0.11723,0.00317
1.788,0.11847,0.00373
1.789,0.12069,0.0042
1.79,0.12423,0.00455
1.791,0.12929,0.00479
1.792,0.13565,0.00489
1.793,0.14243,0.00486
1.794,0.14986,0.00473
1.795,0.15731,0.00452
1.796,0.16399,0.00423
1.797,0.16869,0.00388
1.798,0.1695,0.00345
1.799,0.16588,0.00295
1.8,0.15659,0.00237
1.801,0.1406,0.00169
1.802,0.11688,8.76E-04
1.803,0.0843,-9.49E-05
1.804,0.04308,-0.00124
1.805,-0.00677,-0.00256
1.806,-0.06475,-0.00407
1.807,-0.12991,-0.00575
1.808,-0.20078,-0.00757
1.809,-0.27525,-0.00947
1.81,-0.35143,-0.01141
1.811,-0.42712,-0.01331
1.812,-0.49974,-0.0151
1.813,-0.56628,-0.01668
1.814,-0.62421,-0.01798
1.815,-0.67188,-0.01894
1.816,-0.70775,-0.01952
1.817,-0.73026,-0.01969
1.818,-0.73795,-0.01942
1.819,-0.73051,-0.01873
1.82,-0.70893,-0.01766
1.821,-0.67432,-0.01627
1.822,-0.62782,-0.01463
1.823,-0.57077,-0.0128
1.824,-0.50539,-0.01087
1.825,-0.43465,-0.00894
1.826,-0.3612,-0.00708
1.827,-0.28731,-0.00536
1.828,-0.2151,-0.00382
1.829,-0.14683,-0.00252
1.83,-0.08446,-0.00147
1.831,-0.02934,-6.86E-04
1.832,0.01763,-1.45E-04
1.833,0.05609,1.82E-04
1.834,0.08556,3.18E-04
1.835,0.10674,3.21E-04
1.836,0.12039,2.43E-04
1.837,0.12738,1.33E-04
1.838,0.1289,4.13E-05
1.839,0.12549,-9.02E-06
1.84,0.11906,2.97E-05
1.841,0.11092,1.82E-04
1.842,0.10201,4.54E-04
1.843,0.09321,8.47E-04
1.844,0.08448,0.00132
1.845,0.07694,0.00186
1.846,0.071,0.00244
1.847,0.06668,0.00301
1.848,0.06387,0.00355
1.849,0.06185,0.00398
1.85,0.06074,0.00428
1.851,0.06037,0.00444
1.852,0.06042,0.00444
1.853,0.06061,0.00429
1.854,0.06053,0.00398
1.855,0.06015,0.00356
1.856,0.05948,0.00308
1.857,0.05856,0.00257
1.858,0.05748,0.00211
1.859,0.05637,0.00174
1.86,0.05534,0.00152
1.861,0.05453,0.00149
1.862,0.05412,0.00168
1.863,0.05422,0.00209
1.864,0.05496,0.00271
1.865,0.05629,0.00351
1.866,0.05817,0.00445
1.867,0.06051,0.00547
1.868,0.06321,0.00648
1.869,0.06615,0.00741
1.87,0.06917,0.00819
1.871,0.07212,0.00876
1.872,0.07485,0.00906
1.873,0.07723,0.00906
1.874,0.0792,0.00874
1.875,0.08071,0.00812
1.876,0.08176,0.00723
1.877,0.08235,0.00612
1.878,0.08248,0.00486
1.879,0.08221,0.00352
1.88,0.08161,0.00218
1.881,0.08074,9.23E-04
1.882,0.07962,-1.95E-04
1.883,0.07827,-0.00111
1.884,0.07671,-0.00179
1.885,0.07494,-0.0022
1.886,0.07296,-0.00234
1.887,0.07076,-0.00224
1.888,0.0683,-0.00191
1.889,0.06559,-0.00139
1.89,0.06264,-7.40E-04
1.891,0.05948,-7.98E-06
1.892,0.05615,7.54E-04
1.893,0.05274,0.00149
1.894,0.04935,0.00217
1.895,0.0461,0.00274
1.896,0.04309,0.00318
1.897,0.04046,0.00347
1.898,0.03832,0.00359
1.899,0.03684,0.00356
1.9,0.03607,0.00337
1.901,0.03603,0.00303
1.902,0.03676,0.00256
1.903,0.0382,0.002
1.904,0.04034,0.00136
1.905,0.04306,6.79E-04
1.906,0.04619,-8.65E-06
1.907,0.04958,-6.75E-04
1.908,0.05298,-0.00129
1.909,0.05626,-0.00182
1.91,0.05921,-0.00223
1.911,0.06165,-0.00252
1.912,0.06341,-0.00267
1.913,0.06429,-0.00267
1.914,0.06425,-0.00253
1.915,0.06322,-0.00226
1.916,0.06118,-0.0019
1.917,0.05814,-0.00145
1.918,0.05412,-9.65E-04
1.919,0.04926,-4.74E-04
1.92,0.04368,-1.61E-05
1.921,0.03754,3.73E-04
1.922,0.03101,6.65E-04
1.923,0.02428,8.39E-04
1.924,0.01758,8.82E-04
1.925,0.01112,7.88E-04
1.926,0.00509,5.63E-04
1.927,-3.32E-04,2.22E-04
1.928,-0.00495,-2.09E-04
1.929,-0.0086,-7.02E-04
1.93,-0.01118,-0.00122
1.931,-0.01265,-0.00175
1.932,-0.01296,-0.00223
1.933,-0.01215,-0.00265
1.934,-0.01021,-0.00297
1.935,-0.00732,-0.00318
1.936,-0.00364,-0.00326
1.937,6.27E-04,-0.0032
1.938,0.00524,-0.00301
1.939,0.01003,-0.00268
1.94,0.01467,-0.00223
1.941,0.01892,-0.00168
1.942,0.02255,-0.00104
1.943,0.02533,-3.43E-04
1.944,0.02717,3.83E-04
1.945,0.02793,0.00111
1.946,0.02758,0.00179
1.947,0.02612,0.00241
1.948,0.02362,0.00291
1.949,0.02023,0.00328
1.95,0.01615,0.00348
1.951,0.0116,0.00349
1.952,0.00679,0.0033
1.953,0.00193,0.0029
1.954,-0.00272,0.00231
1.955,-0.00695,0.00155
1.956,-0.01059,6.39E-04
1.957,-0.01355,-3.70E-04
1.958,-0.01579,-0.00143
1.959,-0.01726,-0.00249
1.96,-0.01801,-0.00349
1.961,-0.01811,-0.00439
1.962,-0.01771,-0.00512
1.963,-0.01702,-0.00567
1.964,-0.01611,-0.006
1.965,-0.01519,-0.00611
1.966,-0.01442,-0.006
1.967,-0.01394,-0.00569
1.968,-0.01394,-0.00521
1.969,-0.01439,-0.0046
1.97,-0.01541,-0.00391
1.971,-0.01701,-0.00318
1.972,-0.0192,-0.00246
1.973,-0.02198,-0.0018
1.974,-0.02521,-0.00122
1.975,-0.02887,-7.51E-04
1.976,-0.03289,-4.05E-04
1.977,-0.03719,-1.88E-04
1.978,-0.04169,-1.03E-04
1.979,-0.04625,-1.34E-04
1.98,-0.05079,-2.71E-04
1.981,-0.05523,-5.01E-04
1.982,-0.0595,-8.07E-04
1.983,-0.0635,-0.00118
1.984,-0.06708,-0.0016
1.985,-0.07016,-0.00207
1.986,-0.07266,-0.00258
1.987,-0.07452,-0.00313
1.988,-0.07571,-0.00369
1.989,-0.07608,-0.00427
1.99,-0.07567,-0.00485
1.991,-0.0745,-0.00542
1.992,-0.07265,-0.00595
1.993,-0.07028,-0.00642
1.994,-0.06744,-0.0068
1.995,-0.06436,-0.00706
1.996,-0.06127,-0.00718
1.997,-0.05843,-0.00714
1.998,-0.05618,-0.00692
1.999,-0.05467,-0.00651
2,-0.05418,-0.00591
2.001,-0.05491,-0.00514
2.002,-0.05702,-0.00423
2.003,-0.06063,-0.00321
2.004,-0.06568,-0.00211
2.005,-0.07212,-9.94E-04
2.006,-0.07978,1.01E-04
2.007,-0.08846,0.00112
2.008,-0.09784,0.002
2.009,-0.10754,0.0027
2.01,-0.11718,0.00319
2.011,-0.12639,0.00344
2.012,-0.13481,0.00342
2.013,-0.14204,0.00311
2.014,-0.14776,0.00252
2.015,-0.1518,0.00166
2.016,-0.15404,5.41E-04
2.017,-0.15445,-8.03E-04
2.018,-0.15304,-0.00234
2.019,-0.14991,-0.00401
2.02,-0.14536,-0.00577
2.021,-0.1397,-0.00756
2.022,-0.13323,-0.00932
2.023,-0.12635,-0.01096
2.024,-0.11935,-0.01244
2.025,-0.11266,-0.01369
2.026,-0.10658,-0.01465
2.027,-0.10139,-0.0153
2.028,-0.09732,-0.01558
2.029,-0.09444,-0.01548
2.03,-0.09283,-0.01502
2.031,-0.09248,-0.01422
2.032,-0.09332,-0.0131
2.033,-0.09525,-0.01173
2.034,-0.09806,-0.01016
2.035,-0.10155,-0.00847
2.036,-0.10549,-0.00674
2.037,-0.10969,-0.00506
2.038,-0.11395,-0.0035
2.039,-0.11812,-0.00211
2.04,-0.12201,-9.66E-04
2.041,-0.12553,-9.44E-05
2.042,-0.12859,4.76E-04
2.043,-0.13115,7.31E-04
2.044,-0.13322,6.84E-04
2.045,-0.13481,3.62E-04
2.046,-0.13592,-2.00E-04
2.047,-0.13661,-9.64E-04
2.048,-0.1369,-0.00189
2.049,-0.13683,-0.00293
2.05,-0.13648,-0.00402
2.051,-0.13587,-0.00513
2.052,-0.13502,-0.00621
2.053,-0.13395,-0.00723
2.054,-0.13265,-0.00817
2.055,-0.13118,-0.009
2.056,-0.12957,-0.00972
2.057,-0.12783,-0.0103
2.058,-0.12596,-0.01075
2.059,-0.12402,-0.01108
2.06,-0.12206,-0.01128
2.061,-0.12014,-0.01138
2.062,-0.1183,-0.01139
2.063,-0.11655,-0.01131
2.064,-0.11499,-0.01116
2.065,-0.11364,-0.01098
2.066,-0.11254,-0.01077
2.067,-0.11168,-0.01055
2.068,-0.11101,-0.01033
2.069,-0.11058,-0.01011
2.07,-0.11033,-0.0099
2.071,-0.11021,-0.00971
2.072,-0.11012,-0.00952
2.073,-0.10996,-0.00931
2.074,-0.1097,-0.00907
2.075,-0.10924,-0.00878
2.076,-0.10851,-0.00843
2.077,-0.10741,-0.00799
2.078,-0.10586,-0.00747
2.079,-0.1039,-0.00686
2.08,-0.10147,-0.00617
2.081,-0.09859,-0.00542
2.082,-0.09526,-0.00464
2.083,-0.09153,-0.00386
2.084,-0.08753,-0.00313
2.085,-0.08333,-0.00249
2.086,-0.07902,-0.00197
2.087,-0.07473,-0.00162
2.088,-0.07056,-0.00145
2.089,-0.0667,-0.0015
2.09,-0.06324,-0.00174
2.091,-0.06029,-0.00216
2.092,-0.05791,-0.00274
2.093,-0.05616,-0.00341
2.094,-0.05516,-0.00413
2.095,-0.05487,-0.00484
2.096,-0.05525,-0.00547
2.097,-0.05624,-0.00596
2.098,-0.0577,-0.00626
2.099,-0.0596,-0.00632
2.1,-0.06176,-0.00613
2.101,-0.064,-0.00566
2.102,-0.06614,-0.00493
2.103,-0.06795,-0.00396
2.104,-0.06935,-0.0028
2.105,-0.07018,-0.00148
2.106,-0.0703,-7.28E-05
2.107,-0.06962,0.00137
2.108,-0.068,0.00278
2.109,-0.06555,0.00409
2.11,-0.06226,0.00524
2.111,-0.0582,0.0062
2.112,-0.05346,0.00692
2.113,-0.04812,0.00739
2.114,-0.0424,0.00757
2.115,-0.03645,0.00748
2.116,-0.03043,0.00712
2.117,-0.0245,0.00653
2.118,-0.01876,0.00573
2.119,-0.01341,0.00476
2.12,-0.00854,0.00368
2.121,-0.00418,0.00256
2.122,-4.02E-04,0.00144
2.123,0.0028,4.03E-04
2.124,0.00535,-5.09E-04
2.125,0.00734,-0.00123
2.126,0.00883,-0.00171
2.127,0.00986,-0.00193
2.128,0.0105,-0.00185
2.129,0.01072,-0.00149
2.13,0.01065,-8.55E-04
2.131,0.01036,2.47E-05
2.132,0.00988,0.0011
2.133,0.00927,0.00229
2.134,0.00846,0.00353
2.135,0.00753,0.00475
2.136,0.00653,0.00585
2.137,0.00548,0.00676
2.138,0.00442,0.00741
2.139,0.00331,0.00775
2.14,0.00221,0.00775
2.141,0.00117,0.00739
2.142,2.52E-04,0.00669
2.143,-4.50E-04,0.00567
2.144,-9.43E-04,0.00438
2.145,-0.00116,0.0029
2.146,-0.00105,0.00128
2.147,-5.39E-04,-3.85E-04
2.148,4.49E-04,-0.00202
2.149,0.00189,-0.00355
2.15,0.00381,-0.0049
2.151,0.00618,-0.00602
2.152,0.009,-0.00689
2.153,0.01227,-0.00747
2.154,0.01589,-0.00776
2.155,0.01979,-0.00779
2.156,0.02391,-0.00757
2.157,0.02814,-0.00715
2.158,0.03242,-0.00656
2.159,0.0366,-0.00585
2.16,0.04063,-0.00509
2.161,0.04443,-0.00433
2.162,0.04791,-0.0036
2.163,0.05101,-0.00293
2.164,0.05362,-0.00236
2.165,0.05576,-0.0019
2.166,0.0574,-0.00157
2.167,0.05852,-0.00135
2.168,0.05911,-0.00124
2.169,0.05912,-0.00119
2.17,0.05864,-0.0012
2.171,0.05771,-0.00122
2.172,0.05635,-0.00122
2.173,0.05461,-0.00116
2.174,0.05252,-0.00102
2.175,0.05018,-7.71E-04
2.176,0.04767,-3.98E-04
2.177,0.04508,9.79E-05
2.178,0.04248,7.07E-04
2.179,0.03994,0.0014
2.18,0.03756,0.00215
2.181,0.03542,0.00291
2.182,0.03359,0.00364
2.183,0.03214,0.00428
2.184,0.03109,0.00477
2.185,0.03047,0.00509
2.186,0.03028,0.00521
2.187,0.0305,0.0051
2.188,0.03113,0.00478
2.189,0.03212,0.00424
2.19,0.03339,0.00353
2.191,0.03488,0.00271
2.192,0.03651,0.00182
2.193,0.03824,9.41E-04
2.194,0.04002,1.29E-04
2.195,0.0418,-5.52E-04
2.196,0.04356,-0.00105
2.197,0.04528,-0.00134
2.198,0.04694,-0.0014
2.199,0.04857,-0.00124
2.2,0.05022,-8.73E-04
2.201,0.05188,-3.52E-04
2.202,0.05357,2.76E-04
2.203,0.05525,9.52E-04
2.204,0.0569,0.00161
2.205,0.05849,0.00218
2.206,0.05995,0.00263
2.207,0.06117,0.00291
2.208,0.06201,0.003
2.209,0.06233,0.00292
2.21,0.06199,0.00267
2.211,0.06089,0.0023
2.212,0.05893,0.00184
2.213,0.05608,0.00137
2.214,0.05228,9.45E-04
2.215,0.04761,6.18E-04
2.216,0.04219,4.42E-04
2.217,0.03621,4.53E-04
2.218,0.03,6.71E-04
2.219,0.02381,0.0011
2.22,0.01801,0.00174
2.221,0.01294,0.00255
2.222,0.00897,0.00349
2.223,0.00647,0.00449
2.224,0.00571,0.0055
2.225,0.00684,0.00645
2.226,0.00995,0.00729
2.227,0.01502,0.00796
2.228,0.02191,0.0084
2.229,0.03039,0.00859
2.23,0.04005,0.00851
2.231,0.05044,0.00815
2.232,0.06106,0.00753
2.233,0.07134,0.00666
2.234,0.08074,0.00557
2.235,0.08877,0.00433
2.236,0.095,0.00296
2.237,0.0991,0.00154
2.238,0.10083,1.15E-04
2.239,0.10011,-0.00126
2.24,0.09707,-0.00254
2.241,0.09193,-0.00367
2.242,0.085,-0.00463
2.243,0.07671,-0.00538
2.244,0.06753,-0.00592
2.245,0.05807,-0.00625
2.246,0.04886,-0.00637
2.247,0.04039,-0.00631
2.248,0.03308,-0.00609
2.249,0.02723,-0.00574
2.25,0.02306,-0.0053
2.251,0.02064,-0.00482
2.252,0.01994,-0.00431
2.253,0.02082,-0.00382
2.254,0.02299,-0.00335
2.255,0.02609,-0.00293
2.256,0.02974,-0.00257
2.257,0.03359,-0.00228
2.258,0.03733,-0.00203
2.259,0.04068,-0.00183
2.26,0.04338,-0.00165
2.261,0.04532,-0.0015
2.262,0.04653,-0.00136
2.263,0.04709,-0.00121
2.264,0.04724,-0.00105
2.265,0.04718,-8.89E-04
2.266,0.04719,-7.21E-04
2.267,0.04755,-5.53E-04
2.268,0.04851,-3.82E-04
2.269,0.05031,-2.26E-04
2.27,0.05303,-7.74E-05
2.271,0.0567,6.61E-05
2.272,0.06121,2.13E-04
2.273,0.06637,3.81E-04
2.274,0.07185,5.76E-04
2.275,0.07732,8.24E-04
2.276,0.08238,0.00115
2.277,0.08663,0.00156
2.278,0.08968,0.00208
2.279,0.09119,0.00269
2.28,0.09099,0.00339
2.281,0.08901,0.00417
2.282,0.08529,0.00499
2.283,0.08001,0.00581
2.284,0.07348,0.00659
2.285,0.06615,0.00727
2.286,0.05852,0.00781
2.287,0.05113,0.00818
2.288,0.04449,0.00833
2.289,0.03912,0.00826
2.29,0.03542,0.00797
2.291,0.03367,0.00748
2.292,0.03399,0.00682
2.293,0.03636,0.00604
2.294,0.0406,0.0052
2.295,0.04637,0.00437
2.296,0.05323,0.00361
2.297,0.06063,0.00298
2.298,0.06798,0.00252
2.299,0.07471,0.00225
2.3,0.08026,0.0022
2.301,0.08419,0.00235
2.302,0.08618,0.00268
2.303,0.08603,0.00313
2.304,0.08375,0.00367
2.305,0.07947,0.00422
2.306,0.07348,0.00472
2.307,0.06619,0.00512
2.308,0.0581,0.00536
2.309,0.04979,0.00543
2.31,0.04181,0.0053
2.311,0.03466,0.00497
2.312,0.02879,0.00446
2.313,0.02455,0.00382
2.314,0.02213,0.00309
2.315,0.0216,0.00233
2.316,0.02285,0.0016
2.317,0.0257,9.52E-04
2.318,0.02986,4.45E-04
2.319,0.03494,1.23E-04
2.32,0.04048,8.64E-06
2.321,0.04607,1.12E-04
2.322,0.05134,4.27E-04
2.323,0.05596,9.32E-04
2.324,0.05971,0.00159
2.325,0.06243,0.00235
2.326,0.06411,0.00317
2.327,0.06483,0.00397
2.328,0.06474,0.0047
2.329,0.0641,0.00531
2.33,0.06316,0.00575
2.331,0.06219,0.006
2.332,0.06144,0.00603
2.333,0.06109,0.00584
2.334,0.06126,0.00545
2.335,0.062,0.00489
2.336,0.06325,0.00421
2.337,0.06489,0.00345
2.338,0.06674,0.00266
2.339,0.0685,0.00192
2.34,0.06992,0.00127
2.341,0.07077,7.60E-04
2.342,0.07084,4.27E-04
2.343,0.07002,2.86E-04
2.344,0.06819,3.39E-04
2.345,0.06541,5.68E-04
2.346,0.06185,9.41E-04
2.347,0.05774,0.00141
2.348,0.05341,0.00192
2.349,0.04923,0.00241
2.35,0.0456,0.00281
2.351,0.04288,0.00308
2.352,0.04143,0.00316
2.353,0.04149,0.00303
2.354,0.04325,0.0027
2.355,0.04671,0.00216
2.356,0.05176,0.00146
2.357,0.0582,6.51E-04
2.358,0.06564,-1.98E-04
2.359,0.07366,-0.00101
2.36,0.08175,-0.00171
2.361,0.08938,-0.00224
2.362,0.09606,-0.00252
2.363,0.10129,-0.00253
2.364,0.10469,-0.00224
2.365,0.10603,-0.00166
2.366,0.1052,-8.34E-04
2.367,0.10224,2.00E-04
2.368,0.0973,0.00137
2.369,0.09068,0.00259
2.37,0.08284,0.00378
2.371,0.07427,0.00486
2.372,0.06548,0.00576
2.373,0.05705,0.00642
2.374,0.04945,0.0068
2.375,0.04314,0.00691
2.376,0.03843,0.00676
2.377,0.03554,0.00638
2.378,0.03457,0.00582
2.379,0.03546,0.00515
2.38,0.03802,0.00445
2.381,0.04199,0.00378
2.382,0.04702,0.00321
2.383,0.0527,0.00279
2.384,0.05864,0.00255
2.385,0.06443,0.00251
2.386,0.0697,0.00267
2.387,0.07419,0.00301
2.388,0.07766,0.00349
2.389,0.08006,0.00406
2.39,0.08134,0.00467
2.391,0.08158,0.00526
2.392,0.08091,0.0058
2.393,0.07947,0.00623
2.394,0.07753,0.00652
2.395,0.0753,0.00666
2.396,0.07299,0.00664
2.397,0.07074,0.00646
2.398,0.06865,0.00615
2.399,0.06678,0.00574
2.4,0.06514,0.00525
2.401,0.06369,0.00473
2.402,0.06231,0.00421
2.403,0.06089,0.00372
2.404,0.05926,0.00329
2.405,0.05733,0.00295
2.406,0.055,0.0027
2.407,0.05222,0.00256
2.408,0.049,0.00252
2.409,0.04541,0.00258
2.41,0.04157,0.00273
2.411,0.03764,0.00294
2.412,0.03385,0.00321
2.413,0.03045,0.00351
2.414,0.02771,0.00382
2.415,0.02581,0.00412
2.416,0.02493,0.0044
2.417,0.0252,0.00465
2.418,0.02668,0.00485
2.419,0.02935,0.00501
2.42,0.03307,0.00512
2.421,0.03763,0.0052
2.422,0.04277,0.00523
2.423,0.04819,0.00522
2.424,0.05354,0.00519
2.425,0.05847,0.00513
2.426,0.06265,0.00506
2.427,0.06582,0.00496
2.428,0.06778,0.00483
2.429,0.06841,0.00468
2.43,0.0677,0.00448
2.431,0.06574,0.00424
2.432,0.0627,0.00394
2.433,0.05883,0.00357
2.434,0.05445,0.00313
2.435,0.04994,0.00263
2.436,0.04567,0.00207
2.437,0.04196,0.00148
2.438,0.03908,8.61E-04
2.439,0.03728,2.61E-04
2.44,0.03671,-2.92E-04
2.441,0.03739,-7.64E-04
2.442,0.03924,-0.00112
2.443,0.04206,-0.00135
2.444,0.04562,-0.00141
2.445,0.04958,-0.0013
2.446,0.05359,-0.00105
2.447,0.05728,-6.60E-04
2.448,0.06024,-1.68E-04
2.449,0.06219,3.85E-04
2.45,0.06287,9.42E-04
2.451,0.06215,0.00145
2.452,0.05996,0.00186
2.453,0.05631,0.00212
2.454,0.05142,0.00221
2.455,0.0455,0.0021
2.456,0.03885,0.0018
2.457,0.03184,0.00132
2.458,0.02484,6.98E-04
2.459,0.01826,-8.37E-06
2.46,0.01241,-7.43E-04
2.461,0.00756,-0.00144
2.462,0.00391,-0.00204
2.463,0.00159,-0.00246
2.464,6.47E-04,-0.00268
2.465,9.86E-04,-0.00266
2.466,0.00245,-0.00238
2.467,0.00482,-0.00185
2.468,0.00786,-0.0011
2.469,0.0113,-1.75E-04
2.47,0.01483,8.74E-04
2.471,0.01819,0.00198
2.472,0.02115,0.00309
2.473,0.02355,0.00412
2.474,0.02533,0.00502
2.475,0.02643,0.00575
2.476,0.02687,0.00628
2.477,0.02674,0.0066
2.478,0.02613,0.0067
2.479,0.02526,0.00659
2.48,0.02425,0.0063
2.481,0.02326,0.00586
2.482,0.02239,0.0053
2.483,0.02167,0.00466
2.484,0.02118,0.00397
2.485,0.0209,0.00325
2.486,0.02075,0.00254
2.487,0.02062,0.00184
2.488,0.02033,0.00117
2.489,0.01975,5.26E-04
2.49,0.01875,-8.60E-05
2.491,0.0172,-6.66E-04
2.492,0.015,-0.00122
2.493,0.01209,-0.00175
2.494,0.0085,-0.00224
2.495,0.00432,-0.00271
2.496,-3.26E-04,-0.00313
2.497,-0.00527,-0.00352
2.498,-0.01032,-0.00385
2.499,-0.01519,-0.00412
2.5,-0.01969,-0.00432
2.501,-0.02362,-0.00446
2.502,-0.02681,-0.00453
2.503,-0.02914,-0.00453
2.504,-0.03053,-0.00447
2.505,-0.03103,-0.00436
2.506,-0.03076,-0.0042
2.507,-0.02984,-0.00403
2.508,-0.02841,-0.00385
2.509,-0.02671,-0.00367
2.51,-0.02499,-0.00351
2.511,-0.02349,-0.00339
2.512,-0.02236,-0.00332
2.513,-0.02166,-0.0033
2.514,-0.02149,-0.00333
2.515,-0.02186,-0.00343
2.516,-0.0227,-0.00358
2.517,-0.02384,-0.00377
2.518,-0.025,-0.00399
2.519,-0.02598,-0.00422
2.52,-0.02652,-0.00443
2.521,-0.02637,-0.00461
2.522,-0.0253,-0.00473
2.523,-0.02309,-0.00476
2.524,-0.01968,-0.00468
2.525,-0.01504,-0.00449
2.526,-0.00924,-0.00417
2.527,-0.00243,-0.00371
2.528,0.00518,-0.00313
2.529,0.01323,-0.00245
2.53,0.02142,-0.00169
2.531,0.0294,-8.86E-04
2.532,0.03682,-7.34E-05
2.533,0.04336,7.04E-04
2.534,0.04869,0.0014
2.535,0.05267,0.00199
2.536,0.0552,0.00245
2.537,0.05626,0.00274
2.538,0.05591,0.00286
2.539,0.05422,0.00281
2.54,0.05147,0.00261
2.541,0.04793,0.00228
2.542,0.04388,0.00186
2.543,0.03964,0.00138
2.544,0.03541,8.65E-04
2.545,0.03148,3.61E-04
2.546,0.02806,-1.05E-04
2.547,0.02529,-5.14E-04
2.548,0.0233,-8.57E-04
2.549,0.02203,-0.00114
2.55,0.02149,-0.00136
2.551,0.0216,-0.00154
2.552,0.0223,-0.00169
2.553,0.02351,-0.00184
2.554,0.02507,-0.00201
2.555,0.02692,-0.0022
2.556,0.02899,-0.00243
2.557,0.03126,-0.00268
2.558,0.0337,-0.00294
2.559,0.03636,-0.0032
2.56,0.03924,-0.00342
2.561,0.04239,-0.00357
2.562,0.04583,-0.00365
2.563,0.04955,-0.00361
2.564,0.05354,-0.00344
2.565,0.05773,-0.00315
2.566,0.062,-0.00276
2.567,0.06621,-0.00227
2.568,0.07013,-0.00171
2.569,0.07354,-0.00113
2.57,0.07621,-5.81E-04
2.571,0.07794,-9.46E-05
2.572,0.07852,2.89E-04
2.573,0.07781,5.43E-04
2.574,0.07567,6.45E-04
2.575,0.07216,5.93E-04
2.576,0.06737,3.97E-04
2.577,0.06147,8.34E-05
2.578,0.05475,-3.08E-04
2.579,0.04753,-7.38E-04
2.58,0.04023,-0.00116
2.581,0.03328,-0.00151
2.582,0.02712,-0.00176
2.583,0.02217,-0.00186
2.584,0.01873,-0.00179
2.585,0.01706,-0.00155
2.586,0.01728,-0.00113
2.587,0.01943,-5.50E-04
2.588,0.02346,1.67E-04
2.589,0.02906,9.69E-04
2.59,0.03584,0.00181
2.591,0.04335,0.00266
2.592,0.05115,0.00345
2.593,0.05885,0.00417
2.594,0.06582,0.00477
2.595,0.07164,0.00524
2.596,0.07596,0.00556
2.597,0.07861,0.00575
2.598,0.07964,0.00582
2.599,0.07912,0.00581
2.6,0.07735,0.00574
2.601,0.07474,0.00566
2.602,0.07179,0.00562
2.603,0.06905,0.00565
2.604,0.06734,0.00579
2.605,0.06738,0.00607
2.606,0.06975,0.00653
2.607,0.07476,0.00715
2.608,0.08224,0.00792
2.609,0.09272,0.00881
2.61,0.10608,0.00979
2.611,0.12191,0.01082
2.612,0.13932,0.01182
2.613,0.15654,0.01269
2.614,0.17314,0.01339
2.615,0.18778,0.01383
2.616,0.19916,0.01396
2.617,0.20561,0.01372
2.618,0.20491,0.01304
2.619,0.1965,0.01191
2.62,0.17931,0.01035
2.621,0.15266,0.00838
2.622,0.11599,0.00604
2.623,0.06883,0.00337
2.624,0.01213,4.74E-04
2.625,-0.05335,-0.00255
2.626,-0.12636,-0.00561
2.627,-0.20524,-0.00861
2.628,-0.28787,-0.01147
2.629,-0.37165,-0.01409
2.63,-0.45438,-0.01641
2.631,-0.53372,-0.01841
2.632,-0.60703,-0.02005
2.633,-0.6714,-0.02132
2.634,-0.72455,-0.02222
2.635,-0.76526,-0.02281
2.636,-0.79246,-0.02312
2.637,-0.80506,-0.0232
2.638,-0.8021,-0.02307
2.639,-0.78373,-0.02276
2.64,-0.75149,-0.02233
2.641,-0.70687,-0.0218
2.642,-0.65135,-0.0212
2.643,-0.58654,-0.0205
2.644,-0.51477,-0.01969
2.645,-0.43919,-0.0188
2.646,-0.36244,-0.01781
2.647,-0.2868,-0.01673
2.648,-0.21426,-0.01554
2.649,-0.147,-0.01425
2.65,-0.08676,-0.01289
2.651,-0.03474,-0.01149
2.652,0.00839,-0.01008
2.653,0.04248,-0.0087
2.654,0.06721,-0.00741
2.655,0.08357,-0.00625
2.656,0.09256,-0.00524
2.657,0.09527,-0.00441
2.658,0.09307,-0.00379
2.659,0.08663,-0.0034
2.66,0.07807,-0.00321
2.661,0.06882,-0.00321
2.662,0.05989,-0.00336
2.663,0.05219,-0.00363
2.664,0.0456,-0.00399
2.665,0.04115,-0.00437
2.666,0.03912,-0.00475
2.667,0.03931,-0.00507
2.668,0.04138,-0.00532
2.669,0.04434,-0.00547
2.67,0.04801,-0.00552
2.671,0.05193,-0.00545
2.672,0.05555,-0.00528
2.673,0.0584,-0.00501
2.674,0.05992,-0.00468
2.675,0.06002,-0.0043
2.676,0.05871,-0.0039
2.677,0.05614,-0.00349
2.678,0.05254,-0.00311
2.679,0.04829,-0.00277
2.68,0.04378,-0.0025
2.681,0.03946,-0.00229
2.682,0.03576,-0.00216
2.683,0.0331,-0.0021
2.684,0.0318,-0.00211
2.685,0.03197,-0.00218
2.686,0.03364,-0.00231
2.687,0.03674,-0.00246
2.688,0.04108,-0.00262
2.689,0.04632,-0.00278
2.69,0.05209,-0.00291
2.691,0.05796,-0.003
2.692,0.06354,-0.00303
2.693,0.06845,-0.00299
2.694,0.07234,-0.00287
2.695,0.07503,-0.00269
2.696,0.07641,-0.00243
2.697,0.0765,-0.00213
2.698,0.07541,-0.00178
2.699,0.07337,-0.00142
2.7,0.07066,-0.00107
2.701,0.06766,-7.46E-04
2.702,0.06469,-4.73E-04
2.703,0.0621,-2.56E-04
2.704,0.06019,-1.09E-04
2.705,0.05917,-2.64E-05
2.706,0.05917,1.25E-06
2.707,0.06023,-8.24E-06
2.708,0.06226,-3.01E-05
2.709,0.06507,-3.81E-05
2.71,0.06844,-7.76E-07
2.711,0.07209,1.09E-04
2.712,0.07569,3.13E-04
2.713,0.0789,6.19E-04
2.714,0.08143,0.00103
2.715,0.08305,0.00155
2.716,0.08361,0.00215
2.717,0.08304,0.0028
2.718,0.08133,0.00347
2.719,0.07862,0.0041
2.72,0.07509,0.00465
2.721,0.071,0.00508
2.722,0.06663,0.00535
2.723,0.06224,0.00543
2.724,0.05818,0.00529
2.725,0.05471,0.00493
2.726,0.05203,0.00435
2.727,0.05024,0.00357
2.728,0.04936,0.00263
2.729,0.04941,0.00157
2.73,0.05026,4.33E-04
2.731,0.05172,-7.30E-04
2.732,0.05355,-0.00186
2.733,0.05543,-0.0029
2.734,0.05713,-0.00381
2.735,0.05834,-0.00454
2.736,0.05882,-0.00506
2.737,0.0584,-0.00534
2.738,0.05691,-0.00536
2.739,0.05437,-0.00512
2.74,0.05077,-0.00463
2.741,0.04623,-0.0039
2.742,0.04092,-0.00297
2.743,0.0351,-0.00186
2.744,0.0291,-6.35E-04
2.745,0.02322,6.58E-04
2.746,0.01774,0.00195
2.747,0.01298,0.0032
2.748,0.00919,0.00432
2.749,0.00662,0.00526
2.75,0.0054,0.00597
2.751,0.00555,0.00642
2.752,0.00707,0.00657
2.753,0.00982,0.00641
2.754,0.01367,0.00597
2.755,0.01831,0.00526
2.756,0.02346,0.00435
2.757,0.02877,0.00328
2.758,0.03388,0.00214
2.759,0.03849,0.001
2.76,0.04225,-3.96E-05
2.761,0.04492,-9.11E-04
2.762,0.04631,-0.00155
2.763,0.04629,-0.00192
2.764,0.04489,-0.002
2.765,0.04218,-0.00178
2.766,0.03832,-0.00128
2.767,0.03352,-5.57E-04
2.768,0.02807,3.12E-04
2.769,0.02234,0.00125
2.77,0.01668,0.00217
2.771,0.01144,0.00298
2.772,0.0069,0.0036
2.773,0.00333,0.00394
2.774,9.03E-04,0.00397
2.775,-2.70E-04,0.00366
2.776,-1.94E-04,0.00299
2.777,0.00103,0.002
2.778,0.00322,7.35E-04
2.779,0.00612,-7.43E-04
2.78,0.00942,-0.00235
2.781,0.01276,-0.00401
2.782,0.01583,-0.00562
2.783,0.01828,-0.0071
2.784,0.01988,-0.00837
2.785,0.02042,-0.00937
2.786,0.0198,-0.01007
2.787,0.01799,-0.01044
2.788,0.01506,-0.01046
2.789,0.01128,-0.01017
2.79,0.00688,-0.00959
2.791,0.00218,-0.00876
2.792,-0.00248,-0.00775
2.793,-0.0068,-0.0066
2.794,-0.01037,-0.00537
2.795,-0.01296,-0.00413
2.796,-0.01438,-0.00291
2.797,-0.01458,-0.00177
2.798,-0.01364,-7.34E-04
2.799,-0.01164,1.74E-04
2.8,-0.00886,9.38E-04
2.801,-0.00562,0.00155
2.802,-0.00232,0.00202
2.803,5.56E-04,0.00235
2.804,0.00266,0.00256
2.805,0.00361,0.00266
2.806,0.00311,0.00267
2.807,9.36E-04,0.0026
2.808,-0.00302,0.00247
2.809,-0.00862,0.00229
2.81,-0.0157,0.00206
2.811,-0.02397,0.0018
2.812,-0.03302,0.00151
2.813,-0.04244,0.00118
2.814,-0.0516,7.99E-04
2.815,-0.06004,3.85E-04
2.816,-0.06732,-6.19E-05
2.817,-0.07309,-5.38E-04
2.818,-0.07711,-0.00103
2.819,-0.07915,-0.00154
2.82,-0.07931,-0.00204
2.821,-0.07775,-0.0025
2.822,-0.07477,-0.0029
2.823,-0.07079,-0.00321
2.824,-0.06624,-0.00342
2.825,-0.06169,-0.0035
2.826,-0.05768,-0.00345
2.827,-0.05467,-0.00326
2.828,-0.05305,-0.00295
2.829,-0.05304,-0.00251
2.83,-0.05482,-0.002
2.831,-0.05838,-0.00144
2.832,-0.06356,-8.89E-04
2.833,-0.07004,-3.73E-04
2.834,-0.07734,6.29E-05
2.835,-0.085,3.83E-04
2.836,-0.0925,5.62E-04
2.837,-0.0993,5.91E-04
2.838,-0.10492,4.70E-04
2.839,-0.1089,2.23E-04
2.84,-0.11097,-1.18E-04
2.841,-0.111,-5.08E-04
2.842,-0.10901,-9.01E-04
2.843,-0.10516,-0.00125
2.844,-0.09972,-0.0015
2.845,-0.09313,-0.00162
2.846,-0.08588,-0.00158
2.847,-0.07851,-0.00139
2.848,-0.07161,-0.00104
2.849,-0.06566,-5.75E-04
2.85,-0.06113,-4.12E-05
2.851,-0.05834,5.07E-04
2.852,-0.05749,0.00101
2.853,-0.05867,0.0014
2.854,-0.06177,0.00162
2.855,-0.06659,0.00164
2.856,-0.07281,0.00142
2.857,-0.08001,9.73E-04
2.858,-0.08771,3.11E-04
2.859,-0.09541,-5.21E-04
2.86,-0.10261,-0.00146
2.861,-0.10891,-0.00243
2.862,-0.11394,-0.00336
2.863,-0.11743,-0.00417
2.864,-0.11924,-0.00477
2.865,-0.11932,-0.00511
2.866,-0.11778,-0.00516
2.867,-0.11477,-0.0049
2.868,-0.11058,-0.00434
2.869,-0.10551,-0.00353
2.87,-0.09995,-0.00252
2.871,-0.09426,-0.00139
2.872,-0.08878,-2.29E-04
2.873,-0.08385,8.77E-04
2.874,-0.07969,0.00184
2.875,-0.07653,0.00258
2.876,-0.07447,0.00304
2.877,-0.07354,0.00318
2.878,-0.07372,0.00299
2.879,-0.07489,0.00249
2.88,-0.07692,0.0017
2.881,-0.07962,6.86E-04
2.882,-0.0828,-4.81E-04
2.883,-0.08624,-0.00172
2.884,-0.08973,-0.00294
2.885,-0.09308,-0.00405
2.886,-0.09615,-0.00499
2.887,-0.0988,-0.00568
2.888,-0.10091,-0.00609
2.889,-0.10248,-0.00619
2.89,-0.10345,-0.00597
2.891,-0.10382,-0.00546
2.892,-0.10361,-0.00469
2.893,-0.10284,-0.00372
2.894,-0.1016,-0.00262
2.895,-0.09994,-0.00147
2.896,-0.09795,-3.51E-04
2.897,-0.09566,6.67E-04
2.898,-0.09312,0.00151
2.899,-0.09043,0.00212
2.9,-0.08767,0.00244
2.901,-0.08491,0.00248
2.902,-0.08218,0.00221
2.903,-0.07952,0.00166
2.904,-0.077,8.78E-04
2.905,-0.07468,-9.20E-05
2.906,-0.07258,-0.00118
2.907,-0.07072,-0.00231
2.908,-0.06905,-0.0034
2.909,-0.06763,-0.00438
2.91,-0.06639,-0.00517
2.911,-0.0653,-0.00572
2.912,-0.06427,-0.00601
2.913,-0.06322,-0.00599
2.914,-0.06214,-0.00567
2.915,-0.06093,-0.00508
2.916,-0.05952,-0.00424
2.917,-0.05785,-0.0032
2.918,-0.05586,-0.00202
2.919,-0.05364,-7.62E-04
2.92,-0.05118,5.15E-04
2.921,-0.04851,0.00176
2.922,-0.04571,0.00291
2.923,-0.04281,0.00394
2.924,-0.04003,0.00482
2.925,-0.03743,0.00553
2.926,-0.0351,0.00607
2.927,-0.03311,0.00644
2.928,-0.03143,0.00665
2.929,-0.0302,0.00671
2.93,-0.02933,0.00663
2.931,-0.02876,0.00642
2.932,-0.02836,0.0061
2.933,-0.02796,0.00566
2.934,-0.02747,0.00511
2.935,-0.02669,0.00446
2.936,-0.02545,0.0037
2.937,-0.0236,0.00285
2.938,-0.02102,0.00191
2.939,-0.01772,9.07E-04
2.94,-0.01367,-1.38E-04
2.941,-0.00892,-0.00119
2.942,-0.00358,-0.00221
2.943,0.00216,-0.00315
2.944,0.00802,-0.00397
2.945,0.01376,-0.00464
2.946,0.01914,-0.00511
2.947,0.02389,-0.00537
2.948,0.02782,-0.00539
2.949,0.03063,-0.00517
2.95,0.03226,-0.00474
2.951,0.03267,-0.00411
2.952,0.03189,-0.00333
2.953,0.03007,-0.00242
2.954,0.02731,-0.00145
2.955,0.02394,-4.52E-04
2.956,0.02025,5.11E-04
2.957,0.01657,0.00141
2.958,0.01326,0.0022
2.959,0.01056,0.00288
2.96,0.0088,0.00343
2.961,0.00818,0.00384
2.962,0.00881,0.00413
2.963,0.01073,0.0043
2.964,0.01385,0.00438
2.965,0.01807,0.00439
2.966,0.02315,0.00434
2.967,0.0288,0.00426
2.968,0.03467,0.00415
2.969,0.04038,0.00403
2.97,0.04561,0.00391
2.971,0.05004,0.00379
2.972,0.05338,0.00368
2.973,0.05537,0.00359
2.974,0.0559,0.00351
2.975,0.05493,0.00344
2.976,0.05249,0.00341
2.977,0.0487,0.00341
2.978,0.04372,0.00346
2.979,0.03783,0.00355
2.98,0.03133,0.00369
2.981,0.02451,0.00389
2.982,0.01771,0.00415
2.983,0.01122,0.00445
2.984,0.00531,0.00478
2.985,1.97E-04,0.00513
2.986,-0.00395,0.00548
2.987,-0.00704,0.00582
2.988,-0.009,0.00612
2.989,-0.00985,0.00636
2.99,-0.00966,0.00653
2.991,-0.00857,0.00662
2.992,-0.00668,0.00663
2.993,-0.00415,0.00657
2.994,-0.00111,0.00645
2.995,0.00224,0.00627
2.996,0.00575,0.00607
2.997,0.00929,0.00587
2.998,0.01277,0.0057
2.999,0.01612,0.00559
3,0.01924,0.00555
3.001,0.02208,0.00561
3.002,0.02461,0.00579
3.003,0.02679,0.00609
3.004,0.02862,0.00651
3.005,0.03009,0.00705
3.006,0.03118,0.00769
3.007,0.03187,0.00842
3.008,0.03214,0.00918
3.009,0.03198,0.00994
3.01,0.03142,0.01067
3.011,0.03048,0.01132
3.012,0.02917,0.01184
3.013,0.02751,0.01218
3.014,0.02555,0.01229
3.015,0.02339,0.01216
3.016,0.0211,0.01175
3.017,0.01878,0.01106
3.018,0.01648,0.01008
3.019,0.0143,0.00885
3.02,0.01232,0.0074
3.021,0.0106,0.00579
3.022,0.00918,0.00409
3.023,0.00809,0.00236
3.024,0.00732,7.09E-04
3.025,0.00683,-7.87E-04
3.026,0.00659,-0.00205
3.027,0.00653,-0.00302
3.028,0.0066,-0.00364
3.029,0.00675,-0.00388
3.03,0.00689,-0.00373
3.031,0.00697,-0.00323
3.032,0.00696,-0.00241
3.033,0.00686,-0.00136
3.034,0.0067,-1.36E-04
3.035,0.00647,0.00115
3.036,0.00621,0.00238
3.037,0.00599,0.00348
3.038,0.00589,0.00434
3.039,0.00598,0.0049
3.04,0.00629,0.00509
3.041,0.00687,0.0049
3.042,0.00773,0.00432
3.043,0.00891,0.00337
3.044,0.01036,0.00212
3.045,0.01206,6.24E-04
3.046,0.01394,-0.00103
3.047,0.01593,-0.00274
3.048,0.01793,-0.00441
3.049,0.01987,-0.00595
3.05,0.02165,-0.00726
3.051,0.02321,-0.00828
3.052,0.02448,-0.00896
3.053,0.0254,-0.00925
3.054,0.02593,-0.00915
3.055,0.02605,-0.00866
3.056,0.02579,-0.00781
3.057,0.02515,-0.00664
3.058,0.02416,-0.00522
3.059,0.02285,-0.00361
3.06,0.02129,-0.0019
3.061,0.01953,-1.79E-04
3.062,0.01762,0.00148
3.063,0.01565,0.003
3.064,0.01366,0.00429
3.065,0.01175,0.00531
3.066,0.00998,0.00598
3.067,0.00842,0.0063
3.068,0.00714,0.00624
3.069,0.00623,0.00581
3.07,0.00574,0.00503
3.071,0.00574,0.00397
3.072,0.00625,0.00267
3.073,0.00726,0.00123
3.074,0.00879,-2.86E-04
3.075,0.01078,-0.00176
3.076,0.01316,-0.00311
3.077,0.0158,-0.00425
3.078,0.01852,-0.0051
3.079,0.02119,-0.00561
3.08,0.02358,-0.00576
3.081,0.02551,-0.00552
3.082,0.02677,-0.00493
3.083,0.02718,-0.00401
3.084,0.02661,-0.00284
3.085,0.02495,-0.0015
3.086,0.02219,-8.47E-05
3.087,0.01835,0.00132
3.088,0.01358,0.00264
3.089,0.00804,0.00377
3.09,0.00198,0.00465
3.091,-0.00428,0.00524
3.092,-0.01042,0.00552
3.093,-0.01605,0.0055
3.094,-0.02084,0.00521
3.095,-0.02448,0.00469
3.096,-0.02673,0.00401
3.097,-0.0274,0.00324
3.098,-0.02638,0.00246
3.099,-0.02368,0.00176
3.1,-0.01946,0.00119
3.101,-0.01394,8.23E-04
3.102,-0.00739,6.86E-04
3.103,-1.51E-04,7.95E-04
3.104,0.00735,0.00115
3.105,0.01468,0.00172
3.106,0.02146,0.00248
3.107,0.02733,0.00336
3.108,0.03203,0.0043
3.109,0.03536,0.00522
3.11,0.03725,0.00605
3.111,0.03774,0.00672
3.112,0.03695,0.00718
3.113,0.03507,0.00737
3.114,0.03239,0.00727
3.115,0.02929,0.00688
3.116,0.02611,0.00619
3.117,0.02317,0.00525
3.118,0.02072,0.00408
3.119,0.01898,0.00276
3.12,0.0181,0.00136
3.121,0.01813,-5.35E-05
3.122,0.01898,-0.00139
3.123,0.0205,-0.00259
3.124,0.0224,-0.00359
3.125,0.02444,-0.00432
3.126,0.02631,-0.00477
3.127,0.02772,-0.00492
3.128,0.02841,-0.00479
3.129,0.02814,-0.0044
3.13,0.0268,-0.00381
3.131,0.02439,-0.00308
3.132,0.02098,-0.00227
3.133,0.01677,-0.00148
3.134,0.01204,-7.64E-04
3.135,0.0071,-1.93E-04
3.136,0.00231,1.83E-04
3.137,-0.00195,3.34E-04
3.138,-0.0053,2.50E-04
3.139,-0.00745,-4.67E-05
3.14,-0.00821,-5.27E-04
3.141,-0.00747,-0.00114
3.142,-0.00522,-0.00182
3.143,-0.00156,-0.00251
3.144,0.00331,-0.00312
3.145,0.00906,-0.0036
3.146,0.01533,-0.00389
3.147,0.02175,-0.00397
3.148,0.02793,-0.00383
3.149,0.03348,-0.00349
3.15,0.03811,-0.00297
3.151,0.04158,-0.00233
3.152,0.04378,-0.00163
3.153,0.04467,-9.52E-04
3.154,0.04432,-3.63E-04
3.155,0.04291,7.27E-05
3.156,0.04068,3.06E-04
3.157,0.03791,3.04E-04
3.158,0.03494,5.78E-05
3.159,0.03205,-4.24E-04
3.16,0.02955,-0.00111
3.161,0.02769,-0.00195
3.162,0.02662,-0.00287
3.163,0.02644,-0.0038
3.164,0.02711,-0.00468
3.165,0.02859,-0.00542
3.166,0.03076,-0.00598
3.167,0.03339,-0.00631
3.168,0.03625,-0.00638
3.169,0.03908,-0.00619
3.17,0.04166,-0.00576
3.171,0.04379,-0.00512
3.172,0.04532,-0.00431
3.173,0.0461,-0.00339
3.174,0.0461,-0.00242
3.175,0.04534,-0.00147
3.176,0.04388,-5.80E-04
3.177,0.04184,1.93E-04
3.178,0.03934,8.17E-04
3.179,0.03657,0.00127
3.18,0.03368,0.00154
3.181,0.03082,0.00163
3.182,0.02812,0.00157
3.183,0.02568,0.00138
3.184,0.02356,0.00109
3.185,0.02179,7.56E-04
3.186,0.02036,4.03E-04
3.187,0.01923,7.26E-05
3.188,0.01837,-2.03E-04
3.189,0.01773,-4.01E-04
3.19,0.01724,-5.00E-04
3.191,0.01687,-4.92E-04
3.192,0.01658,-3.81E-04
3.193,0.01638,-1.78E-04
3.194,0.0163,9.20E-05
3.195,0.01633,4.07E-04
3.196,0.01654,7.37E-04
3.197,0.01695,0.00105
3.198,0.01762,0.00131
3.199,0.0186,0.0015
3.2,0.01985,0.00158
3.201,0.02137,0.00154
3.202,0.02311,0.00138
3.203,0.02499,0.00111
3.204,0.02693,7.36E-04
3.205,0.02881,2.83E-04
3.206,0.03049,-2.17E-04
3.207,0.03186,-7.27E-04
3.208,0.03283,-0.00121
3.209,0.0333,-0.00162
3.21,0.03325,-0.00194
3.211,0.03267,-0.00213
3.212,0.0316,-0.00219
3.213,0.03012,-0.0021
3.214,0.02833,-0.00188
3.215,0.02639,-0.00153
3.216,0.02447,-0.0011
3.217,0.02271,-6.06E-04
3.218,0.02124,-8.34E-05
3.219,0.02018,4.31E-04
3.22,0.01961,9.06E-04
3.221,0.01956,0.00132
3.222,0.02002,0.00166
3.223,0.02092,0.00192
3.224,0.02213,0.0021
3.225,0.0235,0.00222
3.226,0.02486,0.0023
3.227,0.02603,0.00235
3.228,0.02689,0.0024
3.229,0.02726,0.00248
3.23,0.02703,0.00258
3.231,0.02617,0.00272
3.232,0.0247,0.0029
3.233,0.02272,0.00309
3.234,0.02034,0.00328
3.235,0.01775,0.00345
3.236,0.01515,0.00356
3.237,0.01279,0.0036
3.238,0.01096,0.00354
3.239,0.00986,0.00336
3.24,0.00966,0.00307
3.241,0.01051,0.00268
3.242,0.01248,0.00219
3.243,0.01561,0.00165
3.244,0.0198,0.00107
3.245,0.02491,5.01E-04
3.246,0.03075,-2.38E-05
3.247,0.03706,-4.70E-04
3.248,0.04355,-8.11E-04
3.249,0.04993,-0.00103
3.25,0.0559,-0.00111
3.251,0.06123,-0.00107
3.252,0.06567,-9.24E-04
3.253,0.06903,-6.80E-04
3.254,0.0712,-3.71E-04
3.255,0.07218,-2.87E-05
3.256,0.07202,3.15E-04
3.257,0.07079,6.35E-04
3.258,0.06858,9.13E-04
3.259,0.0656,0.00113
3.26,0.06209,0.00129
3.261,0.05828,0.00138
3.262,0.05434,0.00142
3.263,0.0504,0.00142
3.264,0.04663,0.00139
3.265,0.04316,0.00136
3.266,0.04004,0.00134
3.267,0.03727,0.00135
3.268,0.03476,0.00139
3.269,0.03246,0.00148
3.27,0.03028,0.00161
3.271,0.02811,0.00178
3.272,0.02583,0.00198
3.273,0.02331,0.0022
3.274,0.02054,0.00243
3.275,0.01745,0.00267
3.276,0.01403,0.00288
3.277,0.01033,0.00308
3.278,0.00644,0.00324
3.279,0.00253,0.00336
3.28,-0.00128,0.00343
3.281,-0.00485,0.00346
3.282,-0.008,0.00343
3.283,-0.01058,0.00335
3.284,-0.01238,0.00322
3.285,-0.01334,0.00305
3.286,-0.01345,0.00285
3.287,-0.01268,0.00262
3.288,-0.01109,0.00237
3.289,-0.00872,0.00212
3.29,-0.00574,0.00188
3.291,-0.00235,0.00166
3.292,0.00126,0.00148
3.293,0.00482,0.00135
3.294,0.00821,0.00127
3.295,0.01122,0.00126
3.296,0.01367,0.0013
3.297,0.01544,0.00139
3.298,0.01636,0.00153
3.299,0.01649,0.00169
3.3,0.01583,0.00186
3.301,0.01442,0.00202
3.302,0.01232,0.00216
3.303,0.00956,0.00225
3.304,0.00632,0.00229
3.305,0.00271,0.00227
3.306,-0.00117,0.0022
3.307,-0.00524,0.00207
3.308,-0.00948,0.0019
3.309,-0.01382,0.00171
3.31,-0.01824,0.00151
3.311,-0.02275,0.00131
3.312,-0.02734,0.00114
3.313,-0.03202,0.001
3.314,-0.03679,9.09E-04
3.315,-0.04164,8.54E-04
3.316,-0.04656,8.34E-04
3.317,-0.05145,8.38E-04
3.318,-0.05613,8.51E-04
3.319,-0.06051,8.57E-04
3.32,-0.06446,8.38E-04
3.321,-0.06783,7.80E-04
3.322,-0.07042,6.74E-04
3.323,-0.07194,5.16E-04
3.324,-0.07226,3.07E-04
3.325,-0.07133,5.25E-05
3.326,-0.06909,-2.34E-04
3.327,-0.06548,-5.33E-04
3.328,-0.06043,-8.20E-04
3.329,-0.05407,-0.00108
3.33,-0.0466,-0.00129
3.331,-0.03822,-0.00144
3.332,-0.02912,-0.00152
3.333,-0.01952,-0.00151
3.334,-0.00975,-0.00142
3.335,-7.32E-05,-0.00125
3.336,0.00926,-0.00101
3.337,0.01805,-7.08E-04
3.338,0.02611,-3.51E-04
3.339,0.03323,4.89E-05
3.34,0.03935,4.83E-04
3.341,0.04445,9.44E-04
3.342,0.04852,0.00143
3.343,0.05162,0.00192
3.344,0.05368,0.00243
3.345,0.05488,0.00295
3.346,0.05535,0.00347
3.347,0.05519,0.00398
3.348,0.05453,0.00447
3.349,0.05334,0.00491
3.35,0.05184,0.0053
3.351,0.05013,0.00561
3.352,0.0483,0.00582
3.353,0.04647,0.00591
3.354,0.04462,0.00586
3.355,0.04293,0.00567
3.356,0.0415,0.00533
3.357,0.04043,0.00485
3.358,0.03982,0.00424
3.359,0.03971,0.00352
3.36,0.0402,0.0027
3.361,0.04136,0.00184
3.362,0.04322,9.48E-04
3.363,0.04576,7.32E-05
3.364,0.0489,-7.60E-04
3.365,0.05255,-0.00152
3.366,0.05656,-0.00219
3.367,0.06077,-0.00275
3.368,0.06496,-0.00317
3.369,0.06887,-0.00344
3.37,0.07227,-0.00358
3.371,0.07493,-0.00357
3.372,0.07668,-0.00341
3.373,0.07738,-0.00311
3.374,0.07693,-0.00267
3.375,0.07536,-0.00209
3.376,0.07275,-0.00139
3.377,0.06925,-5.83E-04
3.378,0.06513,3.19E-04
3.379,0.06065,0.0013
3.38,0.05617,0.00232
3.381,0.05204,0.00335
3.382,0.04859,0.00436
3.383,0.04614,0.0053
3.384,0.04491,0.00614
3.385,0.04504,0.00684
3.386,0.04661,0.00736
3.387,0.04955,0.00768
3.388,0.05372,0.00778
3.389,0.05883,0.00764
3.39,0.06455,0.0073
3.391,0.07049,0.00676
3.392,0.07627,0.00606
3.393,0.08149,0.00524
3.394,0.08575,0.00435
3.395,0.08878,0.00345
3.396,0.09038,0.00259
3.397,0.0905,0.00183
3.398,0.08918,0.0012
3.399,0.08651,7.35E-04
3.4,0.08276,4.53E-04
3.401,0.07824,3.61E-04
3.402,0.07336,4.52E-04
3.403,0.06858,7.06E-04
3.404,0.06421,0.00109
3.405,0.06061,0.00157
3.406,0.05804,0.0021
3.407,0.05671,0.00265
3.408,0.05685,0.00317
3.409,0.05837,0.00363
3.41,0.06123,0.00401
3.411,0.06527,0.00428
3.412,0.07028,0.00444
3.413,0.07602,0.00448
3.414,0.08238,0.00443
3.415,0.08925,0.00429
3.416,0.09651,0.0041
3.417,0.10396,0.00386
3.418,0.11121,0.0036
3.419,0.11872,0.00336
3.42,0.12655,0.00317
3.421,0.13476,0.00304
3.422,0.14312,0.00299
3.423,0.15076,0.00301
3.424,0.15816,0.00311
3.425,0.1649,0.00328
3.426,0.17048,0.0035
3.427,0.17397,0.00375
3.428,0.17366,0.00397
3.429,0.16929,0.00414
3.43,0.15974,0.0042
3.431,0.14404,0.00412
3.432,0.12109,0.00385
3.433,0.0896,0.00334
3.434,0.04955,0.00258
3.435,6.64E-04,0.00156
3.436,-0.05684,2.76E-04
3.437,-0.12232,-0.00126
3.438,-0.19459,-0.003
3.439,-0.27177,-0.0049
3.44,-0.35205,-0.00688
3.441,-0.43322,-0.00888
3.442,-0.51256,-0.01082
3.443,-0.58679,-0.01262
3.444,-0.65302,-0.01418
3.445,-0.70913,-0.01546
3.446,-0.75309,-0.01641
3.447,-0.78282,-0.01701
3.448,-0.79633,-0.01724
3.449,-0.79284,-0.0171
3.45,-0.77305,-0.01664
3.451,-0.73789,-0.01592
3.452,-0.68845,-0.015
3.453,-0.62614,-0.01392
3.454,-0.55346,-0.01276
3.455,-0.47387,-0.01159
3.456,-0.39054,-0.01047
3.457,-0.30636,-0.00944
3.458,-0.22403,-0.00851
3.459,-0.14649,-0.00771
3.46,-0.07627,-0.00702
3.461,-0.0152,-0.00643
3.462,0.03555,-0.00592
3.463,0.07548,-0.00544
3.464,0.10412,-0.00497
3.465,0.12241,-0.00448
3.466,0.13149,-0.00393
3.467,0.13274,-0.00332
3.468,0.12793,-0.00264
3.469,0.11826,-0.00191
3.47,0.10629,-0.00113
3.471,0.09391,-3.29E-04
3.472,0.08252,4.62E-04
3.473,0.07331,0.00121
3.474,0.06635,0.00186
3.475,0.06277,0.00239
3.476,0.06276,0.00279
3.477,0.06592,0.00304
3.478,0.07163,0.00312
3.479,0.07846,0.00302
3.48,0.08592,0.00276
3.481,0.09318,0.00237
3.482,0.09934,0.00185
3.483,0.10357,0.00125
3.484,0.10514,5.88E-04
3.485,0.10389,-1.00E-04
3.486,0.09986,-7.79E-04
3.487,0.09332,-0.00142
3.488,0.08472,-0.00198
3.489,0.07477,-0.00246
3.49,0.06423,-0.00282
3.491,0.05391,-0.00305
3.492,0.04462,-0.00315
3.493,0.03709,-0.00311
3.494,0.03194,-0.00295
3.495,0.02948,-0.00267
3.496,0.02979,-0.00229
3.497,0.03279,-0.00184
3.498,0.03815,-0.00133
3.499,0.04537,-8.05E-04
3.5,0.05376,-2.82E-04
3.501,0.0626,2.12E-04
3.502,0.07113,6.56E-04
3.503,0.07863,0.00103
3.504,0.08449,0.00134
3.505,0.08825,0.00156
3.506,0.08963,0.00171
3.507,0.08859,0.00179
3.508,0.08524,0.00183
3.509,0.07994,0.00182
3.51,0.07318,0.00179
3.511,0.06553,0.00176
3.512,0.05766,0.00174
3.513,0.05024,0.00172
3.514,0.04389,0.00171
3.515,0.03913,0.00171
3.516,0.03631,0.00171
3.517,0.03562,0.00169
3.518,0.0371,0.00165
3.519,0.04055,0.00156
3.52,0.04566,0.00143
3.521,0.05198,0.00124
3.522,0.05896,0.00101
3.523,0.06602,7.42E-04
3.524,0.07253,4.54E-04
3.525,0.078,1.69E-04
3.526,0.08201,-8.49E-05
3.527,0.08426,-2.81E-04
3.528,0.0846,-3.93E-04
3.529,0.08307,-3.99E-04
3.53,0.07984,-2.89E-04
3.531,0.07524,-5.99E-05
3.532,0.06968,2.84E-04
3.533,0.06362,7.26E-04
3.534,0.05764,0.00124
3.535,0.05221,0.0018
3.536,0.04776,0.00237
3.537,0.04462,0.00291
3.538,0.04299,0.00339
3.539,0.04296,0.00378
3.54,0.04447,0.00406
3.541,0.04729,0.00423
3.542,0.05113,0.00427
3.543,0.05557,0.00418
3.544,0.06017,0.004
3.545,0.06449,0.00372
3.546,0.06811,0.00339
3.547,0.0707,0.00301
3.548,0.07197,0.0026
3.549,0.07182,0.00218
3.55,0.07025,0.00177
3.551,0.06737,0.00137
3.552,0.06341,9.76E-04
3.553,0.05865,5.97E-04
3.554,0.05353,2.28E-04
3.555,0.04843,-1.32E-04
3.556,0.04372,-4.83E-04
3.557,0.03972,-8.23E-04
3.558,0.03668,-0.00114
3.559,0.03479,-0.00143
3.56,0.03409,-0.00168
3.561,0.03449,-0.00186
3.562,0.03581,-0.00198
3.563,0.03779,-0.002
3.564,0.04011,-0.00193
3.565,0.04239,-0.00175
3.566,0.04426,-0.00147
3.567,0.04542,-0.0011
3.568,0.04559,-6.63E-04
3.569,0.04463,-1.77E-04
3.57,0.04245,3.24E-04
3.571,0.03912,8.09E-04
3.572,0.03478,0.00124
3.573,0.02972,0.00159
3.574,0.02431,0.00182
3.575,0.01894,0.00191
3.576,0.01399,0.00185
3.577,0.00985,0.00163
3.578,0.00687,0.00124
3.579,0.00538,7.05E-04
3.58,0.00549,3.75E-05
3.581,0.00726,-7.38E-04
3.582,0.01059,-0.00159
3.583,0.01524,-0.00248
3.584,0.02097,-0.00337
3.585,0.02737,-0.00423
3.586,0.03399,-0.005
3.587,0.04035,-0.00567
3.588,0.04593,-0.00618
3.589,0.05037,-0.00652
3.59,0.05331,-0.00667
3.591,0.05453,-0.00662
3.592,0.05386,-0.00637
3.593,0.05123,-0.00593
3.594,0.04681,-0.00532
3.595,0.04081,-0.00457
3.596,0.03354,-0.00372
3.597,0.02534,-0.00282
3.598,0.01658,-0.00192
3.599,0.00776,-0.00107
3.6,-7.27E-04,-3.28E-04
3.601,-0.00854,2.70E-04
3.602,-0.0154,6.86E-04
3.603,-0.02112,8.93E-04
3.604,-0.02552,8.86E-04
3.605,-0.02861,6.72E-04
3.606,-0.03045,2.71E-04
3.607,-0.03119,-2.84E-04
3.608,-0.03105,-9.53E-04
3.609,-0.0302,-0.00168
3.61,-0.02894,-0.00241
3.611,-0.02752,-0.00308
3.612,-0.02618,-0.00366
3.613,-0.02517,-0.00411
3.614,-0.0245,-0.00441
3.615,-0.02434,-0.00455
3.616,-0.02473,-0.00453
3.617,-0.02566,-0.00439
3.618,-0.02715,-0.00414
3.619,-0.02897,-0.00385
3.62,-0.03107,-0.00356
3.621,-0.03335,-0.0033
3.622,-0.03574,-0.00313
3.623,-0.03822,-0.00308
3.624,-0.04062,-0.00316
3.625,-0.04295,-0.0034
3.626,-0.04523,-0.00379
3.627,-0.04752,-0.00431
3.628,-0.04994,-0.00493
3.629,-0.05248,-0.00562
3.63,-0.05524,-0.00633
3.631,-0.05829,-0.00702
3.632,-0.06172,-0.00766
3.633,-0.06559,-0.00821
3.634,-0.06984,-0.00863
3.635,-0.07448,-0.00891
3.636,-0.07946,-0.00904
3.637,-0.0847,-0.00902
3.638,-0.0901,-0.00885
3.639,-0.09546,-0.00855
3.64,-0.10071,-0.00813
3.641,-0.10571,-0.00763
3.642,-0.11034,-0.00706
3.643,-0.11444,-0.00644
3.644,-0.11785,-0.00582
3.645,-0.12056,-0.0052
3.646,-0.12254,-0.00461
3.647,-0.12375,-0.00408
3.648,-0.12414,-0.00361
3.649,-0.12369,-0.00322
3.65,-0.12248,-0.00291
3.651,-0.12059,-0.00269
3.652,-0.11808,-0.00257
3.653,-0.11503,-0.00253
3.654,-0.11149,-0.00258
3.655,-0.1076,-0.00269
3.656,-0.10348,-0.00285
3.657,-0.09926,-0.00306
3.658,-0.09507,-0.00328
3.659,-0.09102,-0.00352
3.66,-0.08727,-0.00375
3.661,-0.08394,-0.00395
3.662,-0.08116,-0.00414
3.663,-0.07907,-0.00429
3.664,-0.07776,-0.00443
3.665,-0.07729,-0.00456
3.666,-0.0777,-0.0047
3.667,-0.079,-0.00484
3.668,-0.08115,-0.00501
3.669,-0.08411,-0.00522
3.67,-0.08774,-0.00547
3.671,-0.09187,-0.00575
3.672,-0.09633,-0.00607
3.673,-0.10086,-0.0064
3.674,-0.10529,-0.00671
3.675,-0.10936,-0.00698
3.676,-0.11285,-0.00719
3.677,-0.11556,-0.00728
3.678,-0.11729,-0.00725
3.679,-0.11795,-0.00706
3.68,-0.11749,-0.00671
3.681,-0.1159,-0.00619
3.682,-0.11322,-0.00553
3.683,-0.10954,-0.00474
3.684,-0.10503,-0.00386
3.685,-0.09992,-0.00294
3.686,-0.09444,-0.00201
3.687,-0.08882,-0.00112
3.688,-0.08333,-3.31E-04
3.689,-0.07819,3.32E-04
3.69,-0.07363,8.40E-04
3.691,-0.06982,0.00118
3.692,-0.06687,0.00135
3.693,-0.06486,0.00135
3.694,-0.06382,0.00121
3.695,-0.06368,9.63E-04
3.696,-0.06436,6.45E-04
3.697,-0.06573,2.96E-04
3.698,-0.06763,-4.94E-05
3.699,-0.06991,-3.59E-04
3.7,-0.07238,-5.99E-04
3.701,-0.07485,-7.50E-04
3.702,-0.07719,-8.03E-04
3.703,-0.07925,-7.62E-04
3.704,-0.081,-6.39E-04
3.705,-0.08235,-4.47E-04
3.706,-0.0833,-2.08E-04
3.707,-0.08385,5.20E-05
3.708,-0.08401,3.03E-04
3.709,-0.08388,5.15E-04
3.71,-0.08352,6.66E-04
3.711,-0.08297,7.37E-04
3.712,-0.08228,7.16E-04
3.713,-0.08147,5.95E-04
3.714,-0.08056,3.73E-04
3.715,-0.07956,5.37E-05
3.716,-0.07843,-3.50E-04
3.717,-0.07713,-8.19E-04
3.718,-0.0756,-0.00133
3.719,-0.0738,-0.00185
3.72,-0.07173,-0.00235
3.721,-0.06937,-0.00282
3.722,-0.06671,-0.00321
3.723,-0.06378,-0.00349
3.724,-0.0607,-0.00365
3.725,-0.05757,-0.00366
3.726,-0.05453,-0.00352
3.727,-0.0517,-0.00324
3.728,-0.04918,-0.0028
3.729,-0.04719,-0.00223
3.73,-0.04581,-0.00156
3.731,-0.04511,-8.23E-04
3.732,-0.0451,-4.63E-05
3.733,-0.04568,7.31E-04
3.734,-0.04683,0.00147
3.735,-0.04836,0.00213
3.736,-0.05005,0.0027
3.737,-0.05164,0.00315
3.738,-0.05281,0.00347
3.739,-0.05335,0.00366
3.74,-0.05298,0.00374
3.741,-0.05146,0.00373
3.742,-0.04864,0.00365
3.743,-0.04445,0.00353
3.744,-0.03894,0.0034
3.745,-0.03223,0.00327
3.746,-0.02451,0.00318
3.747,-0.01608,0.00314
3.748,-0.00732,0.00314
3.749,0.00127,0.00317
3.75,0.00928,0.00323
3.751,0.01629,0.0033
3.752,0.0219,0.00334
3.753,0.02579,0.00335
3.754,0.02764,0.00331
3.755,0.02741,0.00319
3.756,0.02511,0.00301
3.757,0.02088,0.00276
3.758,0.01504,0.00246
3.759,0.0079,0.00214
3.76,-2.28E-06,0.00181
3.761,-0.00813,0.00151
3.762,-0.01593,0.00127
3.763,-0.0228,0.0011
3.764,-0.02831,0.00102
3.765,-0.03202,0.00104
3.766,-0.03363,0.00114
3.767,-0.03297,0.00132
3.768,-0.03,0.00154
3.769,-0.02491,0.00179
3.77,-0.01797,0.00202
3.771,-0.00957,0.0022
3.772,-1.75E-04,0.0023
3.773,0.00968,0.0023
3.774,0.01939,0.0022
3.775,0.0284,0.00199
3.776,0.03623,0.00169
3.777,0.04251,0.00132
3.778,0.04697,9.10E-04
3.779,0.04944,5.03E-04
3.78,0.04993,1.35E-04
3.781,0.04859,-1.56E-04
3.782,0.04569,-3.41E-04
3.783,0.04161,-3.95E-04
3.784,0.03676,-3.06E-04
3.785,0.03166,-7.64E-05
3.786,0.02678,2.81E-04
3.787,0.02255,7.44E-04
3.788,0.01938,0.00128
3.789,0.01748,0.00185
3.79,0.01707,0.00241
3.791,0.0182,0.00292
3.792,0.02077,0.00334
3.793,0.02461,0.00365
3.794,0.02938,0.00382
3.795,0.03475,0.00384
3.796,0.04035,0.0037
3.797,0.04579,0.00343
3.798,0.05066,0.00304
3.799,0.05464,0.00257
3.8,0.05748,0.00204
3.801,0.05904,0.0015
3.802,0.05926,9.91E-04
3.803,0.05816,5.56E-04
3.804,0.05589,2.31E-04
3.805,0.05266,4.77E-05
3.806,0.04875,2.88E-05
3.807,0.04443,1.86E-04
3.808,0.04001,5.19E-04
3.809,0.03579,0.00102
3.81,0.03205,0.00166
3.811,0.02897,0.00242
3.812,0.02669,0.00324
3.813,0.02525,0.00409
3.814,0.02465,0.0049
3.815,0.02482,0.00562
3.816,0.02563,0.00622
3.817,0.02691,0.00664
3.818,0.02844,0.00685
3.819,0.03002,0.00684
3.82,0.03145,0.00659
3.821,0.03256,0.00613
3.822,0.03322,0.00548
3.823,0.03333,0.00466
3.824,0.03287,0.00373
3.825,0.03183,0.00274
3.826,0.03023,0.00176
3.827,0.02819,8.29E-04
3.828,0.02583,-8.82E-06
3.829,0.02332,-7.10E-04
3.83,0.02077,-0.00125
3.831,0.01834,-0.00162
3.832,0.01615,-0.00183
3.833,0.01435,-0.00189
3.834,0.01307,-0.00183
3.835,0.01236,-0.00169
3.836,0.01226,-0.00151
3.837,0.01281,-0.00132
3.838,0.01398,-0.00116
3.839,0.01577,-0.00106
3.84,0.0181,-0.00104
3.841,0.0209,-0.0011
3.842,0.02407,-0.00125
3.843,0.02746,-0.00148
3.844,0.03096,-0.00175
3.845,0.03443,-0.00205
3.846,0.03771,-0.00238
3.847,0.04067,-0.00269
3.848,0.04311,-0.00296
3.849,0.04491,-0.00318
3.85,0.04596,-0.00334
3.851,0.04617,-0.00344
3.852,0.04544,-0.00348
3.853,0.04375,-0.00345
3.854,0.04111,-0.00335
3.855,0.03759,-0.0032
3.856,0.03329,-0.00298
3.857,0.02836,-0.00271
3.858,0.02299,-0.00236
3.859,0.01739,-0.00194
3.86,0.01182,-0.00144
3.861,0.00653,-8.47E-04
3.862,0.00176,-1.59E-04
3.863,-0.00226,6.21E-04
3.864,-0.00533,0.00148
3.865,-0.00734,0.0024
3.866,-0.0082,0.00336
3.867,-0.0079,0.00433
3.868,-0.00645,0.00525
3.869,-0.00396,0.00609
3.87,-6.45E-04,0.0068
3.871,0.00329,0.00735
3.872,0.00762,0.0077
3.873,0.0121,0.00783
3.874,0.01648,0.00771
3.875,0.02051,0.00737
3.876,0.024,0.00682
3.877,0.02682,0.00608
3.878,0.02886,0.00521
3.879,0.03013,0.00423
3.88,0.03063,0.00323
3.881,0.03047,0.00224
3.882,0.02976,0.00133
3.883,0.02866,5.37E-04
3.884,0.02732,-1.01E-04
3.885,0.02591,-5.58E-04
3.886,0.02459,-8.22E-04
3.887,0.02346,-8.92E-04
3.888,0.02262,-7.79E-04
3.889,0.02207,-5.06E-04
3.89,0.02182,-1.08E-04
3.891,0.02183,3.78E-04
3.892,0.02205,9.14E-04
3.893,0.02241,0.00146
3.894,0.02278,0.00198
3.895,0.02313,0.00244
3.896,0.02341,0.0028
3.897,0.02361,0.00305
3.898,0.02374,0.00319
3.899,0.02387,0.00321
3.9,0.02408,0.00312
3.901,0.02449,0.00294
3.902,0.0252,0.00269
3.903,0.02633,0.0024
3.904,0.02795,0.00211
3.905,0.03011,0.00186
3.906,0.03281,0.00167
3.907,0.03597,0.00158
3.908,0.03948,0.0016
3.909,0.04313,0.00174
3.91,0.0467,0.002
3.911,0.04993,0.00238
3.912,0.05256,0.00284
3.913,0.05438,0.00334
3.914,0.0551,0.00384
3.915,0.0546,0.00429
3.916,0.05283,0.00464
3.917,0.0498,0.00483
3.918,0.04568,0.00482
3.919,0.04066,0.00457
3.92,0.03506,0.00408
3.921,0.02928,0.00333
3.922,0.02374,0.00235
3.923,0.01892,0.00118
3.924,0.01522,-1.38E-04
3.925,0.01301,-0.00153
3.926,0.01259,-0.00292
3.927,0.01413,-0.00424
3.928,0.01768,-0.0054
3.929,0.02316,-0.00635
3.93,0.03035,-0.00702
3.931,0.03889,-0.00739
3.932,0.04836,-0.00745
3.933,0.0582,-0.00717
3.934,0.06784,-0.0066
3.935,0.07673,-0.00577
3.936,0.08436,-0.00474
3.937,0.09027,-0.00357
3.938,0.09407,-0.00233
3.939,0.09555,-0.00106
3.94,0.09466,1.57E-04
3.941,0.09147,0.00128
3.942,0.08619,0.00227
3.943,0.07913,0.00312
3.944,0.07073,0.0038
3.945,0.06153,0.00432
3.946,0.05206,0.0047
3.947,0.04284,0.00496
3.948,0.03439,0.00512
3.949,0.02711,0.0052
3.95,0.02137,0.00524
3.951,0.01738,0.00527
3.952,0.01523,0.00529
3.953,0.01491,0.00532
3.954,0.01629,0.00536
3.955,0.01912,0.00542
3.956,0.0231,0.00549
3.957,0.02789,0.00558
3.958,0.03308,0.00567
3.959,0.03835,0.00574
3.96,0.04332,0.00578
3.961,0.04771,0.00579
3.962,0.0513,0.00576
3.963,0.0539,0.00567
3.964,0.0555,0.00551
3.965,0.05606,0.00529
3.966,0.05564,0.00499
3.967,0.05434,0.00463
3.968,0.05229,0.00421
3.969,0.04968,0.00373
3.97,0.04668,0.0032
3.971,0.04343,0.00265
3.972,0.04007,0.00209
3.973,0.03673,0.00154
3.974,0.03348,0.00102
3.975,0.03041,5.54E-04
3.976,0.02756,1.55E-04
3.977,0.02495,-1.61E-04
3.978,0.02265,-3.86E-04
3.979,0.02064,-5.15E-04
3.98,0.01897,-5.60E-04
3.981,0.01767,-5.32E-04
3.982,0.0168,-4.47E-04
3.983,0.01641,-3.23E-04
3.984,0.01655,-1.82E-04
3.985,0.01726,-5.11E-05
3.986,0.01856,4.86E-05
3.987,0.02047,1.06E-04
3.988,0.02296,1.19E-04
3.989,0.026,9.03E-05
3.99,0.02946,2.55E-05
3.991,0.03321,-5.87E-05
3.992,0.03709,-1.37E-04
3.993,0.04094,-1.78E-04
3.994,0.04454,-1.53E-04
3.995,0.04769,-3.99E-05
3.996,0.05023,1.81E-04
3.997,0.052,5.23E-04
3.998,0.05295,9.90E-04
3.999,0.05298,0.00157
4,0.05214,0.00225
4.001,0.0505,0.003
4.002,0.04822,0.00378
4.003,0.04551,0.00456
4.004,0.04255,0.0053
4.005,0.03962,0.00595
4.006,0.037,0.00649
4.007,0.0349,0.00689
4.008,0.03357,0.00715
4.009,0.03312,0.00724
4.01,0.03368,0.00717
4.011,0.03527,0.00697
4.012,0.03785,0.00665
4.013,0.04132,0.00623
4.014,0.04548,0.00574
4.015,0.05011,0.00521
4.016,0.05496,0.00467
4.017,0.05977,0.00415
4.018,0.06425,0.00366
4.019,0.06816,0.00323
4.02,0.07131,0.00286
4.021,0.07355,0.00256
4.022,0.07479,0.00235
4.023,0.07497,0.00223
4.024,0.07417,0.0022
4.025,0.07249,0.00226
4.026,0.07009,0.0024
4.027,0.06714,0.00264
4.028,0.06383,0.00296
4.029,0.06038,0.00336
4.03,0.05702,0.00381
4.031,0.0539,0.00431
4.032,0.05116,0.00485
4.033,0.04887,0.00539
4.034,0.04708,0.00593
4.035,0.04579,0.00643
4.036,0.04494,0.00687
4.037,0.04445,0.00725
4.038,0.04417,0.00754
4.039,0.04399,0.00773
4.04,0.04379,0.00783
4.041,0.04344,0.00783
4.042,0.04285,0.00774
4.043,0.04193,0.00758
4.044,0.0407,0.00735
4.045,0.03916,0.00709
4.046,0.03735,0.0068
4.047,0.03536,0.0065
4.048,0.03325,0.00622
4.049,0.03122,0.00595
4.05,0.02935,0.00572
4.051,0.02773,0.00554
4.052,0.02644,0.00541
4.053,0.02551,0.00532
4.054,0.02502,0.0053
4.055,0.02492,0.00533
4.056,0.02512,0.00543
4.057,0.02555,0.00559
4.058,0.02607,0.0058
4.059,0.02659,0.00606
4.06,0.02695,0.00638
4.061,0.02705,0.00673
4.062,0.02677,0.00711
4.063,0.02604,0.00747
4.064,0.02487,0.00781
4.065,0.02326,0.00808
4.066,0.02126,0.00828
4.067,0.01896,0.00834
4.068,0.01647,0.00825
4.069,0.01397,0.00798
4.07,0.01159,0.00752
4.071,0.00947,0.00686
4.072,0.00772,0.00602
4.073,0.0064,0.00499
4.074,0.00561,0.00382
4.075,0.00534,0.00256
4.076,0.00552,0.00124
4.077,0.00607,-8.68E-05
4.078,0.00684,-0.00137
4.079,0.00772,-0.00255
4.08,0.00855,-0.0036
4.081,0.00915,-0.00448
4.082,0.00938,-0.00517
4.083,0.00907,-0.00569
4.084,0.00822,-0.00602
4.085,0.00679,-0.00619
4.086,0.0048,-0.00624
4.087,0.00228,-0.00621
4.088,-6.93E-04,-0.00613
4.089,-0.00391,-0.00603
4.09,-0.00725,-0.00595
4.091,-0.01055,-0.00593
4.092,-0.01369,-0.00598
4.093,-0.01657,-0.00611
4.094,-0.01907,-0.00631
4.095,-0.02117,-0.00658
4.096,-0.0229,-0.0069
4.097,-0.02431,-0.00725
4.098,-0.02551,-0.0076
4.099,-0.02659,-0.00792
4.1,-0.02773,-0.0082
4.101,-0.02907,-0.0084
4.102,-0.03073,-0.00853
4.103,-0.03278,-0.00857
4.104,-0.03524,-0.00851
4.105,-0.03813,-0.00837
4.106,-0.04139,-0.00815
4.107,-0.04488,-0.00787
4.108,-0.04838,-0.00754
4.109,-0.05166,-0.00719
4.11,-0.05453,-0.00684
4.111,-0.05675,-0.00652
4.112,-0.0581,-0.00623
4.113,-0.05831,-0.006
4.114,-0.05731,-0.00585
4.115,-0.05507,-0.00579
4.116,-0.05165,-0.00581
4.117,-0.04711,-0.00593
4.118,-0.04156,-0.00612
4.119,-0.03533,-0.00637
4.12,-0.02874,-0.00667
4.121,-0.02208,-0.00698
4.122,-0.01566,-0.00729
4.123,-0.00965,-0.00754
4.124,-0.00441,-0.00772
4.125,-5.99E-05,-0.0078
4.126,0.00333,-0.00776
4.127,0.00582,-0.00757
4.128,0.00757,-0.00723
4.129,0.00869,-0.00676
4.13,0.0095,-0.00616
4.131,0.01032,-0.00548
4.132,0.01147,-0.00473
4.133,0.01328,-0.00395
4.134,0.01592,-0.00321
4.135,0.01962,-0.00253
4.136,0.0245,-0.00195
4.137,0.03052,-0.0015
4.138,0.03755,-0.00118
4.139,0.04524,-0.00101
4.14,0.05335,-9.70E-04
4.141,0.06148,-0.00104
4.142,0.0692,-0.00118
4.143,0.07605,-0.00134
4.144,0.08153,-0.00149
4.145,0.08538,-0.00158
4.146,0.0874,-0.00156
4.147,0.08745,-0.00141
4.148,0.08552,-0.00109
4.149,0.08171,-6.19E-04
4.15,0.07634,1.39E-05
4.151,0.06983,7.88E-04
4.152,0.0626,0.00167
4.153,0.05515,0.00262
4.154,0.04795,0.00359
4.155,0.04151,0.00453
4.156,0.03623,0.00541
4.157,0.0324,0.00618
4.158,0.03023,0.0068
4.159,0.02972,0.00726
4.16,0.03079,0.00753
4.161,0.03325,0.00762
4.162,0.03679,0.00753
4.163,0.04107,0.00727
4.164,0.04564,0.00686
4.165,0.05009,0.00632
4.166,0.05404,0.00567
4.167,0.0572,0.00495
4.168,0.05939,0.00416
4.169,0.06049,0.00334
4.17,0.06051,0.00253
4.171,0.05958,0.00173
4.172,0.05793,9.71E-04
4.173,0.05585,2.71E-04
4.174,0.05372,-3.45E-04
4.175,0.05187,-8.60E-04
4.176,0.05063,-0.00126
4.177,0.05026,-0.00154
4.178,0.05095,-0.00169
4.179,0.05277,-0.00172
4.18,0.05573,-0.00164
4.181,0.05967,-0.00146
4.182,0.06437,-0.00121
4.183,0.0695,-9.25E-04
4.184,0.07464,-6.30E-04
4.185,0.0794,-3.70E-04
4.186,0.0834,-1.81E-04
4.187,0.08632,-9.46E-05
4.188,0.08792,-1.32E-04
4.189,0.08791,-3.09E-04
4.19,0.08623,-6.35E-04
4.191,0.08294,-0.00111
4.192,0.07824,-0.00171
4.193,0.07251,-0.0024
4.194,0.06602,-0.00315
4.195,0.05921,-0.00392
4.196,0.05255,-0.00466
4.197,0.04655,-0.00532
4.198,0.04178,-0.00585
4.199,0.03866,-0.00621
4.2,0.03759,-0.00638
4.201,0.03882,-0.00632
4.202,0.0425,-0.00604
4.203,0.04858,-0.00552
4.204,0.05724,-0.00477
4.205,0.06839,-0.00381
4.206,0.08179,-0.00267
4.207,0.09694,-0.0014
4.208,0.11288,-3.35E-05
4.209,0.12964,0.00138
4.21,0.14659,0.00279
4.211,0.16313,0.00416
4.212,0.17828,0.00542
4.213,0.19041,0.0065
4.214,0.19944,0.00737
4.215,0.20445,0.00799
4.216,0.20469,0.00833
4.217,0.19911,0.00837
4.218,0.18618,0.00805
4.219,0.16592,0.00738
4.22,0.1378,0.00639
4.221,0.10157,0.00508
4.222,0.05705,0.00349
4.223,0.00414,0.00163
4.224,-0.05619,-4.29E-04
4.225,-0.12314,-0.00264
4.226,-0.19556,-0.00494
4.227,-0.27189,-0.00728
4.228,-0.35006,-0.00959
4.229,-0.42778,-0.01181
4.23,-0.50311,-0.01391
4.231,-0.57393,-0.01585
4.232,-0.63778,-0.01758
4.233,-0.69188,-0.01907
4.234,-0.7342,-0.02029
4.235,-0.76372,-0.02123
4.236,-0.77956,-0.0219
4.237,-0.78078,-0.02228
4.238,-0.7666,-0.02234
4.239,-0.7374,-0.02206
4.24,-0.69492,-0.02147
4.241,-0.64086,-0.02057
4.242,-0.57692,-0.01936
4.243,-0.50492,-0.01785
4.244,-0.42746,-0.01603
4.245,-0.3477,-0.01397
4.246,-0.26835,-0.0117
4.247,-0.19172,-0.00929
4.248,-0.11982,-0.00679
4.249,-0.05479,-0.00429
4.25,0.00194,-0.00186
4.251,0.04945,4.05E-04
4.252,0.0873,0.00243
4.253,0.11556,0.00412
4.254,0.13417,0.00542
4.255,0.14446,0.00629
4.256,0.14769,0.00672
4.257,0.14508,0.00669
4.258,0.13812,0.00622
4.259,0.12747,0.00534
4.26,0.11527,0.00414
4.261,0.10288,0.00269
4.262,0.09117,0.00108
4.263,0.08091,-5.90E-04
4.264,0.07188,-0.00225
4.265,0.06496,-0.00381
4.266,0.06032,-0.00517
4.267,0.05775,-0.00629
4.268,0.0569,-0.00712
4.269,0.05694,-0.00765
4.27,0.05776,-0.00788
4.271,0.05905,-0.00782
4.272,0.06047,-0.0075
4.273,0.06166,-0.00696
4.274,0.06234,-0.00626
4.275,0.06246,-0.00546
4.276,0.06206,-0.00461
4.277,0.06125,-0.00377
4.278,0.06013,-0.00299
4.279,0.05893,-0.00231
4.28,0.05772,-0.00177
4.281,0.05661,-0.00139
4.282,0.05571,-0.00118
4.283,0.0551,-0.00114
4.284,0.05481,-0.00125
4.285,0.05473,-0.00149
4.286,0.05473,-0.00184
4.287,0.05472,-0.00226
4.288,0.05462,-0.00271
4.289,0.05435,-0.00314
4.29,0.05386,-0.00351
4.291,0.05317,-0.00379
4.292,0.05233,-0.00395
4.293,0.05147,-0.00397
4.294,0.05077,-0.00385
4.295,0.05044,-0.00359
4.296,0.05068,-0.00321
4.297,0.05168,-0.00274
4.298,0.05356,-0.00221
4.299,0.05643,-0.00168
4.3,0.06027,-0.00119
4.301,0.065,-7.78E-04
4.302,0.0704,-4.95E-04
4.303,0.07616,-3.68E-04
4.304,0.08194,-4.20E-04
4.305,0.08731,-6.56E-04
4.306,0.09188,-0.00107
4.307,0.09521,-0.00163
4.308,0.09691,-0.00229
4.309,0.09672,-0.00302
4.31,0.09452,-0.00375
4.311,0.09028,-0.00445
4.312,0.0841,-0.00504
4.313,0.07623,-0.00547
4.314,0.06705,-0.00571
4.315,0.05707,-0.00575
4.316,0.04685,-0.00557
4.317,0.03692,-0.00518
4.318,0.02786,-0.00457
4.319,0.02018,-0.0038
4.32,0.01428,-0.00289
4.321,0.01043,-0.00189
4.322,0.00874,-8.37E-04
4.323,0.00921,2.35E-04
4.324,0.01168,0.00128
4.325,0.01579,0.00228
4.326,0.02111,0.00321
4.327,0.02716,0.00406
4.328,0.0334,0.00481
4.329,0.03934,0.00547
4.33,0.04447,0.00602
4.331,0.0484,0.00649
4.332,0.05085,0.00686
4.333,0.05168,0.00713
4.334,0.05094,0.00731
4.335,0.04873,0.00739
4.336,0.04529,0.00737
4.337,0.04098,0.00725
4.338,0.03617,0.00701
4.339,0.03135,0.00667
4.34,0.02694,0.00623
4.341,0.02327,0.0057
4.342,0.02065,0.0051
4.343,0.01922,0.00444
4.344,0.0191,0.00374
4.345,0.02023,0.00302
4.346,0.02248,0.00232
4.347,0.02556,0.00165
4.348,0.02912,0.00103
4.349,0.03282,4.86E-04
4.35,0.03627,1.35E-05
4.351,0.03914,-3.78E-04
4.352,0.04111,-6.90E-04
4.353,0.04188,-9.27E-04
4.354,0.04137,-0.00109
4.355,0.03952,-0.00121
4.356,0.03639,-0.00128
4.357,0.03211,-0.00132
4.358,0.02687,-0.00134
4.359,0.021,-0.00134
4.36,0.01482,-0.00134
4.361,0.00862,-0.00134
4.362,0.00269,-0.00133
4.363,-0.00271,-0.00132
4.364,-0.00731,-0.00129
4.365,-0.011,-0.00126
4.366,-0.01372,-0.0012
4.367,-0.01549,-0.00113
4.368,-0.0164,-0.00103
4.369,-0.01653,-8.88E-04
4.37,-0.01608,-7.14E-04
4.371,-0.01525,-5.01E-04
4.372,-0.01425,-2.50E-04
4.373,-0.01329,3.77E-05
4.374,-0.01248,3.60E-04
4.375,-0.01197,7.11E-04
4.376,-0.01185,0.00108
4.377,-0.01216,0.00145
4.378,-0.01293,0.00182
4.379,-0.01401,0.00214
4.38,-0.01535,0.00242
4.381,-0.01685,0.00262
4.382,-0.01843,0.00273
4.383,-0.02004,0.00272
4.384,-0.02147,0.00259
4.385,-0.02273,0.00233
4.386,-0.02379,0.00195
4.387,-0.02468,0.00145
4.388,-0.0255,8.74E-04
4.389,-0.02629,2.39E-04
4.39,-0.02715,-4.11E-04
4.391,-0.02824,-0.00103
4.392,-0.02968,-0.00158
4.393,-0.03163,-0.00202
4.394,-0.03414,-0.00232
4.395,-0.03729,-0.00245
4.396,-0.0411,-0.0024
4.397,-0.04556,-0.00218
4.398,-0.0506,-0.00181
4.399,-0.05602,-0.00131
4.4,-0.06169,-7.39E-04
4.401,-0.06741,-1.41E-04
4.402,-0.07295,4.30E-04
4.403,-0.07809,9.21E-04
4.404,-0.0825,0.00128
4.405,-0.086,0.00148
4.406,-0.08844,0.00149
4.407,-0.0897,0.00129
4.408,-0.08977,9.19E-04
4.409,-0.08855,3.78E-04
4.41,-0.08618,-2.91E-04
4.411,-0.08283,-0.00104
4.412,-0.07873,-0.00183
4.413,-0.07423,-0.00258
4.414,-0.06957,-0.00324
4.415,-0.06515,-0.00378
4.416,-0.06133,-0.00416
4.417,-0.05847,-0.00435
4.418,-0.0569,-0.00433
4.419,-0.05682,-0.0041
4.42,-0.05842,-0.00367
4.421,-0.06179,-0.00306
4.422,-0.06691,-0.00229
4.423,-0.07364,-0.00139
4.424,-0.08174,-4.01E-04
4.425,-0.09088,6.51E-04
4.426,-0.10068,0.00173
4.427,-0.1107,0.00282
4.428,-0.12042,0.00386
4.429,-0.12932,0.00485
4.43,-0.13695,0.00576
4.431,-0.14291,0.00657
4.432,-0.14689,0.00726
4.433,-0.14866,0.0078
4.434,-0.14805,0.00819
4.435,-0.14514,0.00841
4.436,-0.14009,0.00846
4.437,-0.13319,0.00833
4.438,-0.12486,0.00802
4.439,-0.11553,0.00754
4.44,-0.10581,0.00692
4.441,-0.09628,0.00616
4.442,-0.0875,0.00531
4.443,-0.08004,0.00438
4.444,-0.07432,0.0034
4.445,-0.07073,0.00242
4.446,-0.06949,0.00147
4.447,-0.0707,5.63E-04
4.448,-0.07431,-2.70E-04
4.449,-0.0801,-0.00101
4.45,-0.08774,-0.00166
4.451,-0.09679,-0.0022
4.452,-0.10673,-0.00264
4.453,-0.11697,-0.00299
4.454,-0.12694,-0.00325
4.455,-0.13605,-0.00344
4.456,-0.14381,-0.00358
4.457,-0.14981,-0.00367
4.458,-0.15371,-0.00373
4.459,-0.15537,-0.00376
4.46,-0.15472,-0.00377
4.461,-0.15188,-0.00377
4.462,-0.14705,-0.00375
4.463,-0.14054,-0.00372
4.464,-0.13277,-0.00367
4.465,-0.12422,-0.00359
4.466,-0.11537,-0.0035
4.467,-0.10669,-0.00339
4.468,-0.09865,-0.00325
4.469,-0.0916,-0.00306
4.47,-0.08587,-0.00285
4.471,-0.08166,-0.00258
4.472,-0.07909,-0.00228
4.473,-0.07818,-0.00192
4.474,-0.07882,-0.00152
4.475,-0.08082,-0.00106
4.476,-0.08396,-5.56E-04
4.477,-0.08796,-1.23E-05
4.478,-0.09252,5.51E-04
4.479,-0.09735,0.00111
4.48,-0.10211,0.00166
4.481,-0.10655,0.00215
4.482,-0.11049,0.00257
4.483,-0.11375,0.00288
4.484,-0.11631,0.00304
4.485,-0.11811,0.00303
4.486,-0.11917,0.00285
4.487,-0.11959,0.00249
4.488,-0.11943,0.00194
4.489,-0.11891,0.00123
4.49,-0.11814,3.91E-04
4.491,-0.11728,-5.46E-04
4.492,-0.11642,-0.00153
4.493,-0.11561,-0.0025
4.494,-0.11493,-0.00342
4.495,-0.11443,-0.00423
4.496,-0.11408,-0.00489
4.497,-0.11381,-0.00537
4.498,-0.11347,-0.00563
4.499,-0.11301,-0.00567
4.5,-0.11232,-0.00551
4.501,-0.11132,-0.00515
4.502,-0.10989,-0.00463
4.503,-0.10791,-0.00397
4.504,-0.10541,-0.00322
4.505,-0.10237,-0.00242
4.506,-0.09884,-0.00162
4.507,-0.09488,-8.42E-04
4.508,-0.09052,-1.18E-04
4.509,-0.08599,5.28E-04
4.51,-0.08138,0.00108
4.511,-0.07684,0.00153
4.512,-0.07248,0.00189
4.513,-0.06835,0.00216
4.514,-0.06464,0.00235
4.515,-0.06137,0.00248
4.516,-0.05853,0.00255
4.517,-0.05609,0.00258
4.518,-0.05396,0.0026
4.519,-0.05215,0.0026
4.52,-0.05052,0.00259
4.521,-0.04892,0.0026
4.522,-0.04726,0.00263
4.523,-0.04539,0.00269
4.524,-0.04334,0.00278
4.525,-0.041,0.00291
4.526,-0.03834,0.00308
4.527,-0.03538,0.00331
4.528,-0.03214,0.00359
4.529,-0.02881,0.00391
4.53,-0.02544,0.00427
4.531,-0.02214,0.00466
4.532,-0.01903,0.00507
4.533,-0.0162,0.00548
4.534,-0.01385,0.00588
4.535,-0.01201,0.00625
4.536,-0.0107,0.00659
4.537,-0.00992,0.00689
4.538,-0.00957,0.00714
4.539,-0.00969,0.00733
4.54,-0.0101,0.0075
4.541,-0.01065,0.00763
4.542,-0.01118,0.00774
4.543,-0.01148,0.00784
4.544,-0.01148,0.00795
4.545,-0.01098,0.00806
4.546,-0.00989,0.00819
4.547,-0.00812,0.00833
4.548,-0.00561,0.00845
4.549,-0.00247,0.00856
4.55,0.00127,0.00862
4.551,0.0055,0.00862
4.552,0.01008,0.00853
4.553,0.01485,0.00831
4.554,0.01953,0.00796
4.555,0.02397,0.00748
4.556,0.02799,0.00685
4.557,0.03143,0.00609
4.558,0.03417,0.00522
4.559,0.03605,0.00427
4.56,0.03709,0.00327
4.561,0.03729,0.00228
4.562,0.03673,0.00133
4.563,0.03553,4.56E-04
4.564,0.03378,-2.89E-04
4.565,0.0317,-8.85E-04
4.566,0.02949,-0.00132
4.567,0.02734,-0.00157
4.568,0.02546,-0.00165
4.569,0.02397,-0.00156
4.57,0.02305,-0.00134
4.571,0.02278,-0.001
4.572,0.02324,-5.85E-04
4.573,0.02442,-1.25E-04
4.574,0.02624,3.50E-04
4.575,0.02865,8.02E-04
4.576,0.03152,0.0012
4.577,0.03471,0.00153
4.578,0.03805,0.00177
4.579,0.04133,0.00191
4.58,0.04441,0.00195
4.581,0.04713,0.00188
4.582,0.04938,0.00171
4.583,0.05103,0.00147
4.584,0.05202,0.00117
4.585,0.05235,8.34E-04
4.586,0.05201,4.78E-04
4.587,0.05108,1.35E-04
4.588,0.04962,-1.56E-04
4.589,0.04774,-3.72E-04
4.59,0.04557,-4.81E-04
4.591,0.04325,-4.58E-04
4.592,0.04091,-2.83E-04
4.593,0.03868,6.25E-05
4.594,0.03665,5.76E-04
4.595,0.03494,0.00125
4.596,0.03362,0.00208
4.597,0.03273,0.00303
4.598,0.03228,0.00407
4.599,0.03227,0.00514
4.6,0.03266,0.00619
4.601,0.03342,0.00719
4.602,0.03446,0.00807
4.603,0.0357,0.0088
4.604,0.03706,0.00932
4.605,0.03847,0.00962
4.606,0.03982,0.0097
4.607,0.04105,0.00954
4.608,0.04207,0.00918
4.609,0.04285,0.00863
4.61,0.04334,0.00794
4.611,0.04352,0.00715
4.612,0.04337,0.00633
4.613,0.04289,0.00553
4.614,0.04211,0.00477
4.615,0.04105,0.00412
4.616,0.03974,0.00361
4.617,0.03823,0.00324
4.618,0.03654,0.00305
4.619,0.03475,0.00303
4.62,0.0329,0.00316
4.621,0.03104,0.00343
4.622,0.02921,0.00383
4.623,0.02745,0.00432
4.624,0.02583,0.00488
4.625,0.02438,0.00547
4.626,0.02315,0.00608
4.627,0.02216,0.00668
4.628,0.02142,0.00725
4.629,0.021,0.00777
4.63,0.02088,0.00823
4.631,0.02106,0.00862
4.632,0.02154,0.00892
4.633,0.02226,0.00914
4.634,0.02319,0.00927
4.635,0.02426,0.00932
4.636,0.02538,0.00929
4.637,0.02645,0.00919
4.638,0.02738,0.00904
4.639,0.02807,0.00884
4.64,0.0284,0.00862
4.641,0.02827,0.00839
4.642,0.02762,0.00816
4.643,0.02645,0.00796
4.644,0.02473,0.00777
4.645,0.0225,0.00762
4.646,0.01983,0.0075
4.647,0.01684,0.00741
4.648,0.01375,0.00731
4.649,0.01073,0.00721
4.65,0.00798,0.00708
4.651,0.00573,0.0069
4.652,0.00419,0.00665
4.653,0.00356,0.00631
4.654,0.00401,0.00589
4.655,0.0056,0.00538
4.656,0.00836,0.00479
4.657,0.01226,0.00414
4.658,0.0172,0.00345
4.659,0.02296,0.00277
4.66,0.02928,0.00211
4.661,0.03588,0.00151
4.662,0.04244,1.00E-03
4.663,0.0486,6.00E-04
4.664,0.05402,3.34E-04
4.665,0.05841,2.00E-04
4.666,0.06154,1.89E-04
4.667,0.06326,2.86E-04
4.668,0.06349,4.67E-04
4.669,0.06221,7.08E-04
4.67,0.05957,9.69E-04
4.671,0.05578,0.00122
4.672,0.05111,0.00142
4.673,0.04589,0.00156
4.674,0.04046,0.00162
4.675,0.03524,0.00158
4.676,0.03059,0.00145
4.677,0.02682,0.00124
4.678,0.02418,9.62E-04
4.679,0.02283,6.44E-04
4.68,0.02286,3.08E-04
4.681,0.02424,-2.26E-05
4.682,0.02687,-3.23E-04
4.683,0.03055,-5.68E-04
4.684,0.03499,-7.40E-04
4.685,0.03986,-8.29E-04
4.686,0.04482,-8.29E-04
4.687,0.04953,-7.39E-04
4.688,0.05369,-5.62E-04
4.689,0.05702,-3.05E-04
4.69,0.05932,2.05E-05
4.691,0.06047,4.00E-04
4.692,0.06047,8.20E-04
4.693,0.05938,0.00126
4.694,0.05735,0.00171
4.695,0.05463,0.00214
4.696,0.05147,0.00255
4.697,0.04818,0.00291
4.698,0.04506,0.0032
4.699,0.0424,0.00342
4.7,0.04046,0.00355
4.701,0.03943,0.00359
4.702,0.03939,0.00353
4.703,0.04037,0.00338
4.704,0.04228,0.00314
4.705,0.04501,0.00284
4.706,0.04833,0.00249
4.707,0.052,0.00212
4.708,0.0557,0.00174
4.709,0.05912,0.00139
4.71,0.06197,0.00109
4.711,0.06403,8.57E-04
4.712,0.06509,7.04E-04
4.713,0.06505,6.37E-04
4.714,0.06386,6.55E-04
4.715,0.06157,7.48E-04
4.716,0.05829,9.00E-04
4.717,0.05424,0.00109
4.718,0.04968,0.00129
4.719,0.0449,0.00148
4.72,0.04023,0.00165
4.721,0.03595,0.00176
4.722,0.03236,0.00181
4.723,0.0297,0.00179
4.724,0.02816,0.00171
4.725,0.02784,0.00158
4.726,0.02877,0.00141
4.727,0.0309,0.00122
4.728,0.03409,0.00101
4.729,0.03816,8.11E-04
4.73,0.04286,6.27E-04
4.731,0.04792,4.63E-04
4.732,0.05304,3.14E-04
4.733,0.05789,1.63E-04
4.734,0.0622,1.85E-06
4.735,0.06572,-1.89E-04
4.736,0.06824,-4.32E-04
4.737,0.06961,-7.46E-04
4.738,0.06975,-0.00115
4.739,0.06865,-0.00165
4.74,0.06638,-0.00225
4.741,0.06305,-0.00294
4.742,0.05883,-0.0037
4.743,0.05396,-0.00451
4.744,0.04868,-0.00534
4.745,0.04329,-0.00615
4.746,0.03807,-0.00691
4.747,0.03326,-0.00758
4.748,0.02911,-0.00813
4.749,0.02582,-0.00853
4.75,0.02354,-0.00878
4.751,0.02236,-0.00886
4.752,0.0223,-0.00877
4.753,0.02332,-0.00851
4.754,0.02532,-0.0081
4.755,0.02812,-0.00756
4.756,0.03151,-0.00692
4.757,0.03528,-0.0062
4.758,0.03917,-0.00543
4.759,0.04292,-0.00462
4.76,0.04626,-0.0038
4.761,0.04898,-0.003
4.762,0.05094,-0.00223
4.763,0.05203,-0.00152
4.764,0.05221,-8.68E-04
4.765,0.05151,-3.00E-04
4.766,0.05002,1.78E-04
4.767,0.0479,5.58E-04
4.768,0.04537,8.35E-04
4.769,0.04268,0.001
4.77,0.0401,0.00107
4.771,0.03789,0.00105
4.772,0.03628,9.47E-04
4.773,0.03547,7.75E-04
4.774,0.03559,5.48E-04
4.775,0.03672,2.94E-04
4.776,0.03885,3.65E-05
4.777,0.04189,-2.09E-04
4.778,0.04567,-4.31E-04
4.779,0.04995,-6.19E-04
4.78,0.05445,-7.60E-04
4.781,0.05888,-8.54E-04
4.782,0.06293,-9.07E-04
4.783,0.06631,-9.35E-04
4.784,0.06875,-9.53E-04
4.785,0.07006,-9.77E-04
4.786,0.07014,-0.00102
4.787,0.06896,-0.00111
4.788,0.06662,-0.00126
4.789,0.06324,-0.00147
4.79,0.05908,-0.00176
4.791,0.05445,-0.00211
4.792,0.04967,-0.00251
4.793,0.04511,-0.00297
4.794,0.04111,-0.00345
4.795,0.03799,-0.00394
4.796,0.03598,-0.00442
4.797,0.03526,-0.00487
4.798,0.03589,-0.00527
4.799,0.03784,-0.00561
4.8,0.04099,-0.00588
4.801,0.04511,-0.00608
4.802,0.04994,-0.00621
4.803,0.05511,-0.00626
4.804,0.06025,-0.00625
4.805,0.06499,-0.00618
4.806,0.06901,-0.00607
4.807,0.07201,-0.00591
4.808,0.0738,-0.00572
4.809,0.07425,-0.0055
4.81,0.07335,-0.00526
4.811,0.07118,-0.00502
4.812,0.06791,-0.00477
4.813,0.0638,-0.00451
4.814,0.05918,-0.00425
4.815,0.05438,-0.004
4.816,0.04975,-0.00375
4.817,0.04562,-0.00351
4.818,0.0423,-0.00325
4.819,0.04001,-0.00298
4.82,0.0389,-0.00268
4.821,0.03902,-0.00232
4.822,0.04035,-0.00189
4.823,0.04277,-0.00138
4.824,0.0461,-7.76E-04
4.825,0.05011,-5.49E-05
4.826,0.05454,7.85E-04
4.827,0.05909,0.00173
4.828,0.06347,0.00276
4.829,0.06746,0.00383
4.83,0.07087,0.00491
4.831,0.07357,0.00594
4.832,0.07546,0.00685
4.833,0.07645,0.00758
4.834,0.07663,0.00804
4.835,0.07606,0.00819
4.836,0.07485,0.008
4.837,0.07309,0.00742
4.838,0.07082,0.00645
4.839,0.06818,0.00511
4.84,0.06524,0.00344
4.841,0.06202,0.00153
4.842,0.05852,-5.48E-04
4.843,0.05472,-0.00269
4.844,0.05056,-0.00479
4.845,0.04603,-0.00672
4.846,0.04108,-0.00839
4.847,0.03572,-0.00972
4.848,0.03001,-0.01063
4.849,0.02403,-0.01109
4.85,0.01792,-0.0111
4.851,0.01184,-0.01067
4.852,0.00604,-0.00986
4.853,8.11E-04,-0.00876
4.854,-0.00351,-0.00743
4.855,-0.00668,-0.00601
4.856,-0.00846,-0.00461
4.857,-0.00866,-0.00333
4.858,-0.00715,-0.00225
4.859,-0.0038,-0.00147
4.86,0.00126,-0.00103
4.861,0.00785,-9.70E-04
4.862,0.01569,-0.00129
4.863,0.02437,-0.00194
4.864,0.03352,-0.00289
4.865,0.04261,-0.00405
4.866,0.05113,-0.00535
4.867,0.05857,-0.00669
4.868,0.06439,-0.00796
4.869,0.06826,-0.00907
4.87,0.0699,-0.00993
4.871,0.06914,-0.01048
4.872,0.06593,-0.01067
4.873,0.06031,-0.01047
4.874,0.05254,-0.00987
4.875,0.04298,-0.0089
4.876,0.03209,-0.00761
4.877,0.02033,-0.00604
4.878,0.00824,-0.0043
4.879,-0.0036,-0.00246
4.88,-0.01466,-6.35E-04
4.881,-0.0245,0.0011
4.882,-0.03273,0.00264
4.883,-0.03908,0.00391
4.884,-0.04334,0.00484
4.885,-0.0455,0.0054
4.886,-0.04564,0.00558
4.887,-0.04392,0.00537
4.888,-0.04061,0.00479
4.889,-0.03599,0.00389
4.89,-0.03052,0.00274
4.891,-0.02458,0.00141
4.892,-0.01857,-2.52E-05
4.893,-0.01286,-0.00149
4.894,-0.00772,-0.00291
4.895,-0.00348,-0.00422
4.896,-3.54E-04,-0.00537
4.897,0.00157,-0.00632
4.898,0.00227,-0.00706
4.899,0.00178,-0.00758
4.9,1.68E-04,-0.0079
4.901,-0.00243,-0.00803
4.902,-0.00581,-0.00799
4.903,-0.00968,-0.00782
4.904,-0.01384,-0.00754
4.905,-0.01804,-0.00719
4.906,-0.02206,-0.00677
4.907,-0.02563,-0.0063
4.908,-0.02845,-0.0058
4.909,-0.03045,-0.00525
4.91,-0.03144,-0.00467
4.911,-0.0313,-0.00406
4.912,-0.02994,-0.00342
4.913,-0.02723,-0.00276
4.914,-0.02326,-0.0021
4.915,-0.01807,-0.00146
4.916,-0.01173,-8.80E-04
4.917,-0.00434,-3.76E-04
4.918,0.00396,3.15E-05
4.919,0.0129,3.00E-04
4.92,0.02225,4.17E-04
4.921,0.03177,3.72E-04
4.922,0.04119,1.75E-04
4.923,0.05024,-1.39E-04
4.924,0.05857,-5.51E-04
4.925,0.06596,-1.00E-03
4.926,0.0722,-0.00142
4.927,0.07713,-0.00175
4.928,0.0806,-0.00192
4.929,0.08248,-0.00187
4.93,0.08285,-0.00154
4.931,0.08183,-8.94E-04
4.932,0.07953,7.44E-05
4.933,0.07618,0.00135
4.934,0.07193,0.0029
4.935,0.06717,0.00466
4.936,0.06221,0.00657
4.937,0.05735,0.00852
4.938,0.0529,0.01039
4.939,0.04902,0.01209
4.94,0.04597,0.01351
4.941,0.04391,0.01457
4.942,0.0429,0.01519
4.943,0.04298,0.0153
4.944,0.04403,0.01488
4.945,0.04596,0.01393
4.946,0.04862,0.0125
4.947,0.05181,0.01063
4.948,0.05533,0.00839
4.949,0.05895,0.00589
4.95,0.06248,0.00323
4.951,0.06575,5.31E-04
4.952,0.06862,-0.00209
4.953,0.07098,-0.00453
4.954,0.0728,-0.00667
4.955,0.07406,-0.00845
4.956,0.07478,-0.0098
4.957,0.07501,-0.01068
4.958,0.07479,-0.01108
4.959,0.07422,-0.011
4.96,0.07337,-0.01049
4.961,0.0723,-0.00961
4.962,0.07104,-0.00843
4.963,0.06963,-0.00704
4.964,0.06806,-0.00553
4.965,0.06633,-0.004
4.966,0.06442,-0.00254
4.967,0.06232,-0.00124
4.968,0.06004,-1.56E-04
4.969,0.05756,6.79E-04
4.97,0.05492,0.00123
4.971,0.05218,0.00149
4.972,0.04945,0.00148
4.973,0.04688,0.00125
4.974,0.04458,8.50E-04
4.975,0.0427,3.42E-04
4.976,0.04139,-2.09E-04
4.977,0.04082,-7.38E-04
4.978,0.04118,-0.00119
4.979,0.04248,-0.00152
4.98,0.04474,-0.00169
4.981,0.04791,-0.00171
4.982,0.05193,-0.00157
4.983,0.05673,-0.00128
4.984,0.06205,-9.09E-04
4.985,0.06765,-4.81E-04
4.986,0.07328,-4.14E-05
4.987,0.07869,3.65E-04
4.988,0.08367,7.02E-04
4.989,0.08809,9.36E-04
4.99,0.0919,0.00106
4.991,0.09507,0.00107
4.992,0.09759,9.80E-04
4.993,0.09937,8.23E-04
4.994,0.10093,6.38E-04
4.995,0.10259,4.67E-04
4.996,0.10465,3.55E-04
4.997,0.10719,3.36E-04
4.998,0.10983,4.31E-04
4.999,0.11328,6.72E-04
5,0.1175,0.00106
5.001,0.12237,0.00159
5.002,0.12726,0.00223
5.003,0.1308,0.00291
5.004,0.13294,0.00361
5.005,0.13273,0.00426
5.006,0.12919,0.00481
5.007,0.12107,0.00519
5.008,0.10662,0.00533
5.009,0.08548,0.0052
5.01,0.05677,0.00477
5.011,0.01995,0.00401
5.012,-0.02525,0.00293
5.013,-0.07885,0.00152
5.014,-0.13985,-1.69E-04
5.015,-0.20739,-0.0021
5.016,-0.2801,-0.00422
5.017,-0.35605,-0.00646
5.018,-0.43268,-0.00874
5.019,-0.50738,-0.01097
5.02,-0.57795,-0.01309
5.021,-0.64206,-0.01502
5.022,-0.6971,-0.01669
5.023,-0.74022,-0.01802
5.024,-0.76954,-0.01896
5.025,-0.78434,-0.01949
5.026,-0.7841,-0.0196
5.027,-0.76842,-0.01929
5.028,-0.73716,-0.01854
5.029,-0.69141,-0.0174
5.03,-0.63346,-0.01594
5.031,-0.56563,-0.01422
5.032,-0.49018,-0.01232
5.033,-0.40952,-0.01028
5.034,-0.32661,-0.00819
5.035,-0.24468,-0.00613
5.036,-0.16641,-0.00416
5.037,-0.09406,-0.00233
5.038,-0.02945,-6.45E-04
5.039,0.02561,8.55E-04
5.04,0.07031,0.00218
5.041,0.10432,0.00334
5.042,0.12773,0.00436
5.043,0.14119,0.00528
5.044,0.14516,0.00611
5.045,0.1416,0.00691
5.046,0.13221,0.0077
5.047,0.11856,0.0085
5.048,0.1024,0.0093
5.049,0.08457,0.01009
5.05,0.06725,0.01086
5.051,0.05174,0.01159
5.052,0.03884,0.01224
5.053,0.02913,0.01276
5.054,0.02217,0.01309
5.055,0.01847,0.01323
5.056,0.01787,0.01315
5.057,0.01987,0.01285
5.058,0.02384,0.01231
5.059,0.02872,0.01154
5.06,0.03405,0.01059
5.061,0.03927,0.0095
5.062,0.04392,0.00832
5.063,0.04762,0.0071
5.064,0.05011,0.0059
5.065,0.0513,0.00477
5.066,0.05132,0.00376
5.067,0.05044,0.00291
5.068,0.049,0.00224
5.069,0.04747,0.00179
5.07,0.04617,0.00154
5.071,0.04546,0.0015
5.072,0.04564,0.00165
5.073,0.04695,0.00195
5.074,0.04953,0.00238
5.075,0.05335,0.00291
5.076,0.05827,0.0035
5.077,0.06404,0.0041
5.078,0.07028,0.00467
5.079,0.07661,0.00518
5.08,0.08265,0.0056
5.081,0.08801,0.0059
5.082,0.0923,0.00605
5.083,0.09515,0.00604
5.084,0.09633,0.00587
5.085,0.09576,0.00554
5.086,0.09344,0.00505
5.087,0.08946,0.00443
5.088,0.08397,0.00371
5.089,0.07725,0.00291
5.09,0.06966,0.00207
5.091,0.06157,0.00125
5.092,0.05338,4.65E-04
5.093,0.04547,-2.25E-04
5.094,0.03819,-7.92E-04
5.095,0.03186,-0.00121
5.096,0.02669,-0.00145
5.097,0.02285,-0.00152
5.098,0.02046,-0.00142
5.099,0.01951,-0.00114
5.1,0.01991,-7.33E-04
5.101,0.02153,-2.13E-04
5.102,0.0242,3.85E-04
5.103,0.02772,0.00102
5.104,0.03188,0.00167
5.105,0.03637,0.00229
5.106,0.04098,0.00285
5.107,0.04549,0.00333
5.108,0.04973,0.00373
5.109,0.05359,0.00403
5.11,0.05693,0.00424
5.111,0.05968,0.00436
5.112,0.06183,0.0044
5.113,0.06338,0.00438
5.114,0.06443,0.00429
5.115,0.06503,0.00417
5.116,0.06528,0.00403
5.117,0.06526,0.00386
5.118,0.06505,0.00367
5.119,0.06475,0.00348
5.12,0.06444,0.00328
5.121,0.06419,0.00308
5.122,0.06401,0.00289
5.123,0.06386,0.0027
5.124,0.06371,0.00251
5.125,0.06356,0.00234
5.126,0.06335,0.00218
5.127,0.06299,0.00204
5.128,0.06237,0.00191
5.129,0.06143,0.00178
5.13,0.06011,0.00166
5.131,0.05837,0.00153
5.132,0.05618,0.00138
5.133,0.05352,0.00121
5.134,0.05044,9.89E-04
5.135,0.047,7.25E-04
5.136,0.04327,4.07E-04
5.137,0.03937,3.66E-05
5.138,0.0354,-3.78E-04
5.139,0.03155,-8.21E-04
5.14,0.02793,-0.00128
5.141,0.02466,-0.00172
5.142,0.02186,-0.00213
5.143,0.01962,-0.00248
5.144,0.01807,-0.00273
5.145,0.01722,-0.00288
5.146,0.01706,-0.00291
5.147,0.01757,-0.00281
5.148,0.01866,-0.00259
5.149,0.02031,-0.00226
5.15,0.02236,-0.00184
5.151,0.02468,-0.00136
5.152,0.02711,-8.48E-04
5.153,0.02945,-3.38E-04
5.154,0.03162,1.43E-04
5.155,0.03344,5.70E-04
5.156,0.03478,9.24E-04
5.157,0.03554,0.00119
5.158,0.03559,0.00137
5.159,0.03492,0.00147
5.16,0.03352,0.0015
5.161,0.03139,0.00148
5.162,0.02855,0.00142
5.163,0.02507,0.00134
5.164,0.02108,0.00125
5.165,0.01669,0.00117
5.166,0.01203,0.00111
5.167,0.00725,0.00106
5.168,0.00247,0.00102
5.169,-0.0021,9.91E-04
5.17,-0.00635,9.53E-04
5.171,-0.01014,9.00E-04
5.172,-0.01338,8.20E-04
5.173,-0.01599,7.08E-04
5.174,-0.01786,5.55E-04
5.175,-0.01897,3.63E-04
5.176,-0.01935,1.36E-04
5.177,-0.01901,-1.18E-04
5.178,-0.01806,-3.85E-04
5.179,-0.0165,-6.56E-04
5.18,-0.01448,-9.17E-04
5.181,-0.01213,-0.00116
5.182,-0.00961,-0.00137
5.183,-0.00714,-0.00153
5.184,-0.00478,-0.00164
5.185,-0.00273,-0.00169
5.186,-0.00114,-0.00169
5.187,-1.68E-04,-0.00163
5.188,-7.71E-06,-0.0015
5.189,-6.53E-04,-0.00132
5.19,-0.00219,-0.00108
5.191,-0.00467,-7.87E-04
5.192,-0.00809,-4.44E-04
5.193,-0.01249,-5.63E-05
5.194,-0.0177,3.69E-04
5.195,-0.02365,8.20E-04
5.196,-0.03019,0.00128
5.197,-0.0372,0.00174
5.198,-0.04451,0.00218
5.199,-0.05187,0.00257
5.2,-0.0591,0.0029
5.201,-0.06602,0.00315
5.202,-0.07246,0.0033
5.203,-0.07825,0.00335
5.204,-0.08318,0.00327
5.205,-0.08719,0.00309
5.206,-0.09021,0.00281
5.207,-0.09221,0.00244
5.208,-0.09323,0.00201
5.209,-0.09321,0.00154
5.21,-0.09231,0.00107
5.211,-0.09067,6.10E-04
5.212,-0.08845,1.96E-04
5.213,-0.08587,-1.59E-04
5.214,-0.08301,-4.41E-04
5.215,-0.08016,-6.46E-04
5.216,-0.07755,-7.77E-04
5.217,-0.07535,-8.43E-04
5.218,-0.07377,-8.64E-04
5.219,-0.07286,-8.53E-04
5.22,-0.07279,-8.30E-04
5.221,-0.07362,-8.13E-04
5.222,-0.07536,-8.19E-04
5.223,-0.07799,-8.63E-04
5.224,-0.08137,-9.43E-04
5.225,-0.0854,-0.00106
5.226,-0.0899,-0.00122
5.227,-0.09469,-0.0014
5.228,-0.09954,-0.00161
5.229,-0.1042,-0.00182
5.23,-0.10845,-0.00203
5.231,-0.11209,-0.00224
5.232,-0.11495,-0.00245
5.233,-0.11691,-0.00266
5.234,-0.11785,-0.00288
5.235,-0.11777,-0.00311
5.236,-0.1167,-0.00336
5.237,-0.11474,-0.00365
5.238,-0.11208,-0.00398
5.239,-0.10885,-0.00434
5.24,-0.10535,-0.00475
5.241,-0.10182,-0.00519
5.242,-0.09852,-0.00565
5.243,-0.09572,-0.00611
5.244,-0.09363,-0.00654
5.245,-0.09246,-0.00694
5.246,-0.09235,-0.00727
5.247,-0.09335,-0.00753
5.248,-0.09544,-0.00768
5.249,-0.09855,-0.00773
5.25,-0.10254,-0.00767
5.251,-0.10722,-0.00751
5.252,-0.11232,-0.00725
5.253,-0.11751,-0.00691
5.254,-0.12251,-0.0065
5.255,-0.127,-0.00604
5.256,-0.1307,-0.00556
5.257,-0.13338,-0.00508
5.258,-0.13478,-0.00461
5.259,-0.13479,-0.00416
5.26,-0.13337,-0.00376
5.261,-0.13053,-0.00341
5.262,-0.12635,-0.00313
5.263,-0.12099,-0.00291
5.264,-0.11467,-0.00276
5.265,-0.10768,-0.00268
5.266,-0.10032,-0.00267
5.267,-0.0929,-0.00273
5.268,-0.08575,-0.00284
