0,-0.09215,0.00127,-0.4976,-0.02523
0.001,-0.09301,0.00213,,
0.002,-0.09443,0.00309,,
0.003,-0.09631,0.00416,,
0.004,-0.0986,0.00531,,
0.005,-0.10118,0.00653,,
0.006,-0.10397,0.00779,,
0.007,-0.10691,0.00904,,
0.008,-0.10993,0.01025,,
0.009,-0.11292,0.01133,,
0.01,-0.11589,0.01223,,
0.011,-0.11879,0.01291,,
0.012,-0.12159,0.01331,,
0.013,-0.12424,0.01339,,
0.014,-0.12662,0.01311,,
0.015,-0.12874,0.01245,,
0.016,-0.13053,0.01144,,
0.017,-0.13191,0.01009,,
0.018,-0.13278,0.00844,,
0.019,-0.13297,0.00654,,
0.02,-0.13242,0.00446,,
0.021,-0.13106,0.00228,,
0.022,-0.12883,6.47E-05,,
0.023,-0.12566,-0.0021,,
0.024,-0.12149,-0.00413,,
0.025,-0.11639,-0.00596,,
0.026,-0.11045,-0.00755,,
0.027,-0.10381,-0.00885,,
0.028,-0.09661,-0.00982,,
0.029,-0.08903,-0.01044,,
0.03,-0.08137,-0.0107,,
0.031,-0.07387,-0.01062,,
0.032,-0.06678,-0.01022,,
0.033,-0.06034,-0.00952,,
0.034,-0.05472,-0.00857,,
0.035,-0.0502,-0.00738,,
0.036,-0.0468,-0.00603,,
0.037,-0.04458,-0.00458,,
0.038,-0.04351,-0.00306,,
0.039,-0.04348,-0.00155,,
0.04,-0.04442,-6.59E-05,,
0.041,-0.04608,0.00132,,
0.042,-0.04818,0.00257,,
0.043,-0.05048,0.00366,,
0.044,-0.05273,0.00456,,
0.045,-0.05476,0.00526,,
0.046,-0.05631,0.00575,,
0.047,-0.05723,0.00605,,
0.048,-0.05741,0.00617,,
0.049,-0.05683,0.00612,,
0.05,-0.0556,0.00593,,
0.051,-0.05378,0.00563,,
0.052,-0.0515,0.00525,,
0.053,-0.04894,0.00483,,
0.054,-0.04628,0.00437,,
0.055,-0.04377,0.0039,,
0.056,-0.0416,0.00343,,
0.057,-0.03989,0.00297,,
0.058,-0.03875,0.00255,,
0.059,-0.0382,0.00215,,
0.06,-0.03827,0.00178,,
0.061,-0.03889,0.00144,,
0.062,-0.03995,0.00115,,
0.063,-0.04128,8.98E-04,,
0.064,-0.04265,7.10E-04,,
0.065,-0.04391,5.90E-04,,
0.066,-0.04482,5.52E-04,,
0.067,-0.04522,6.06E-04,,
0.068,-0.04494,7.63E-04,,
0.069,-0.04388,0.00103,,
0.07,-0.04198,0.0014,,
0.071,-0.03925,0.00186,,
0.072,-0.03574,0.00241,,
0.073,-0.03156,0.003,,
0.074,-0.02689,0.00362,,
0.075,-0.02197,0.00423,,
0.076,-0.01699,0.00479,,
0.077,-0.0122,0.00526,,
0.078,-0.00782,0.00561,,
0.079,-0.00411,0.00581,,
0.08,-0.00129,0.00584,,
0.081,4.91E-04,0.0057,,
0.082,0.00115,0.00539,,
0.083,6.23E-04,0.00493,,
0.084,-0.00108,0.00432,,
0.085,-0.00393,0.00362,,
0.086,-0.00779,0.00284,,
0.087,-0.0125,0.00204,,
0.088,-0.01784,0.00125,,
0.089,-0.02351,5.09E-04,,
0.09,-0.02929,-1.55E-04,,
0.091,-0.03486,-7.17E-04,,
0.092,-0.03995,-0.00116,,
0.093,-0.04428,-0.00147,,
0.094,-0.04757,-0.00166,,
0.095,-0.04963,-0.00171,,
0.096,-0.05031,-0.00165,,
0.097,-0.0495,-0.00149,,
0.098,-0.04718,-0.00125,,
0.099,-0.0434,-9.33E-04,,
0.1,-0.03826,-5.71E-04,,
0.101,-0.03198,-1.86E-04,,
0.102,-0.02481,2.05E-04,,
0.103,-0.01705,5.85E-04,,
0.104,-0.0091,9.45E-04,,
0.105,-0.00131,0.00127,,
0.106,0.0059,0.00155,,
0.107,0.01216,0.00177,,
0.108,0.01715,0.00193,,
0.109,0.02054,0.00204,,
0.11,0.02214,0.0021,,
0.111,0.02184,0.00213,,
0.112,0.01963,0.00214,,
0.113,0.01558,0.00215,,
0.114,0.00991,0.00218,,
0.115,0.00289,0.00226,,
0.116,-0.00505,0.0024,,
0.117,-0.01348,0.00263,,
0.118,-0.02193,0.00296,,
0.119,-0.0299,0.00338,,
0.12,-0.03692,0.00388,,
0.121,-0.04256,0.00446,,
0.122,-0.04647,0.00508,,
0.123,-0.04844,0.00572,,
0.124,-0.04836,0.00632,,
0.125,-0.04624,0.00683,,
0.126,-0.04226,0.00722,,
0.127,-0.0367,0.00744,,
0.128,-0.02993,0.00746,,
0.129,-0.02245,0.00725,,
0.13,-0.01477,0.00678,,
0.131,-0.00746,0.00608,,
0.132,-0.00103,0.00515,,
0.133,0.00405,0.00402,,
0.134,0.00743,0.00273,,
0.135,0.00886,0.00135,,
0.136,0.00823,-8.49E-05,,
0.137,0.00558,-0.0015,,
0.138,0.00109,-0.00284,,
0.139,-0.00494,-0.00404,,
0.14,-0.01204,-0.00506,,
0.141,-0.01971,-0.00586,,
0.142,-0.0274,-0.00642,,
0.143,-0.0346,-0.00673,,
0.144,-0.04079,-0.00678,,
0.145,-0.04553,-0.00658,,
0.146,-0.04851,-0.00616,,
0.147,-0.04956,-0.00555,,
0.148,-0.04865,-0.0048,,
0.149,-0.04591,-0.00394,,
0.15,-0.04159,-0.00301,,
0.151,-0.03608,-0.00206,,
0.152,-0.02985,-0.00116,,
0.153,-0.02339,-3.24E-04,,
0.154,-0.01725,3.97E-04,,
0.155,-0.01191,9.80E-04,,
0.156,-0.00782,0.0014,,
0.157,-0.0053,0.00163,,
0.158,-0.00453,0.00167,,
0.159,-0.00559,0.00153,,
0.16,-0.00837,0.00123,,
0.161,-0.01266,7.86E-04,,
0.162,-0.01814,2.32E-04,,
0.163,-0.02439,-3.90E-04,,
0.164,-0.03097,-0.00103,,
0.165,-0.03735,-0.00166,,
0.166,-0.0431,-0.00221,,
0.167,-0.04783,-0.00266,,
0.168,-0.05127,-0.00297,,
0.169,-0.05321,-0.0031,,
0.17,-0.0536,-0.00306,,
0.171,-0.05251,-0.00285,,
0.172,-0.05013,-0.00247,,
0.173,-0.04675,-0.00196,,
0.174,-0.04272,-0.00133,,
0.175,-0.03846,-6.34E-04,,
0.176,-0.03438,8.45E-05,,
0.177,-0.03084,7.88E-04,,
0.178,-0.02817,0.00144,,
0.179,-0.02662,0.002,,
0.18,-0.0263,0.00246,,
0.181,-0.02724,0.0028,,
0.182,-0.02936,0.00303,,
0.183,-0.03249,0.00314,,
0.184,-0.03637,0.00314,,
0.185,-0.04065,0.00306,,
0.186,-0.04499,0.00292,,
0.187,-0.04908,0.00275,,
0.188,-0.05263,0.00256,,
0.189,-0.05539,0.00235,,
0.19,-0.05719,0.00214,,
0.191,-0.05798,0.00193,,
0.192,-0.05779,0.00173,,
0.193,-0.05675,0.00152,,
0.194,-0.05507,0.00128,,
0.195,-0.05299,0.001,,
0.196,-0.05081,6.93E-04,,
0.197,-0.04883,3.34E-04,,
0.198,-0.0473,-7.44E-05,,
0.199,-0.04648,-5.38E-04,,
0.2,-0.04648,-0.00105,,
0.201,-0.04738,-0.00159,,
0.202,-0.04915,-0.00217,,
0.203,-0.05171,-0.00276,,
0.204,-0.05488,-0.00335,,
0.205,-0.05838,-0.00392,,
0.206,-0.06196,-0.00447,,
0.207,-0.06535,-0.00499,,
0.208,-0.0683,-0.00548,,
0.209,-0.07059,-0.00592,,
0.21,-0.07204,-0.0063,,
0.211,-0.07263,-0.00663,,
0.212,-0.07238,-0.00689,,
0.213,-0.07139,-0.00708,,
0.214,-0.06979,-0.00719,,
0.215,-0.06787,-0.0072,,
0.216,-0.0659,-0.00711,,
0.217,-0.06417,-0.00691,,
0.218,-0.06292,-0.00659,,
0.219,-0.06229,-0.00615,,
0.22,-0.06248,-0.00561,,
0.221,-0.06352,-0.00498,,
0.222,-0.06538,-0.00429,,
0.223,-0.06789,-0.00357,,
0.224,-0.07072,-0.00286,,
0.225,-0.07364,-0.00221,,
0.226,-0.07627,-0.00166,,
0.227,-0.07828,-0.00125,,
0.228,-0.07928,-0.00103,,
0.229,-0.0789,-9.92E-04,,
0.23,-0.07696,-0.00117,,
0.231,-0.07336,-0.00156,,
0.232,-0.06807,-0.00213,,
0.233,-0.0612,-0.00285,,
0.234,-0.0529,-0.00365,,
0.235,-0.04357,-0.00449,,
0.236,-0.03361,-0.00528,,
0.237,-0.02343,-0.00596,,
0.238,-0.0135,-0.00646,,
0.239,-0.00423,-0.00671,,
0.24,0.00389,-0.00667,,
0.241,0.01063,-0.0063,,
0.242,0.0158,-0.0056,,
0.243,0.0193,-0.00457,,
0.244,0.02112,-0.00325,,
0.245,0.02135,-0.00169,,
0.246,0.02029,3.99E-05,,
0.247,0.01825,0.00186,,
0.248,0.01556,0.00369,,
0.249,0.01253,0.00541,,
0.25,0.00943,0.00695,,
0.251,0.00662,0.00823,,
0.252,0.00431,0.00917,,
0.253,0.00261,0.00972,,
0.254,0.00156,0.00985,,
0.255,0.00101,0.00955,,
0.256,8.93E-04,0.00884,,
0.257,0.00102,0.00776,,
0.258,0.00119,0.00636,,
0.259,0.00117,0.00473,,
0.26,7.18E-04,0.00294,,
0.261,-3.02E-04,0.00111,,
0.262,-0.00196,-6.64E-04,,
0.263,-0.00426,-0.00229,,
0.264,-0.00709,-0.00368,,
0.265,-0.01028,-0.00476,,
0.266,-0.01362,-0.00549,,
0.267,-0.0168,-0.00583,,
0.268,-0.01952,-0.00579,,
0.269,-0.02143,-0.0054,,
0.27,-0.02225,-0.00469,,
0.271,-0.0218,-0.00374,,
0.272,-0.01997,-0.00264,,
0.273,-0.01671,-0.00147,,
0.274,-0.0121,-3.21E-04,,
0.275,-0.00634,7.26E-04,,
0.276,2.64E-04,0.00159,,
0.277,0.00733,0.00223,,
0.278,0.01447,0.0026,,
0.279,0.02126,0.00271,,
0.28,0.02725,0.00258,,
0.281,0.03208,0.00224,,
0.282,0.03548,0.00175,,
0.283,0.03729,0.00119,,
0.284,0.03745,6.22E-04,,
0.285,0.036,1.30E-04,,
0.286,0.03318,-2.25E-04,,
0.287,0.02929,-3.95E-04,,
0.288,0.02471,-3.52E-04,,
0.289,0.01988,-8.44E-05,,
0.29,0.01522,3.89E-04,,
0.291,0.01123,0.00104,,
0.292,0.00827,0.00181,,
0.293,0.00664,0.00266,,
0.294,0.00653,0.0035,,
0.295,0.00796,0.00427,,
0.296,0.01088,0.00492,,
0.297,0.01511,0.00541,,
0.298,0.02035,0.0057,,
0.299,0.02621,0.00578,,
0.3,0.03218,0.00567,,
0.301,0.0378,0.00538,,
0.302,0.04261,0.00496,,
0.303,0.04624,0.00445,,
0.304,0.04842,0.00389,,
0.305,0.04886,0.00333,,
0.306,0.04752,0.00283,,
0.307,0.04444,0.00239,,
0.308,0.03982,0.00205,,
0.309,0.03403,0.00182,,
0.31,0.02753,0.00168,,
0.311,0.02089,0.00162,,
0.312,0.01465,0.00162,,
0.313,0.00931,0.00165,,
0.314,0.00526,0.00168,,
0.315,0.00326,0.00171,,
0.316,0.00372,0.0017,,
0.317,0.00688,0.00166,,
0.318,0.01267,0.0016,,
0.319,0.02047,0.0015,,
0.32,0.03057,0.00142,,
0.321,0.04245,0.00137,,
0.322,0.05551,0.00137,,
0.323,0.06871,0.00146,,
0.324,0.08027,0.00163,,
0.325,0.08986,0.00192,,
0.326,0.09624,0.00232,,
0.327,0.09834,0.00282,,
0.328,0.09485,0.00338,,
0.329,0.08406,0.00395,,
0.33,0.06577,0.00449,,
0.331,0.03924,0.00495,,
0.332,0.00412,0.00526,,
0.333,-0.0397,0.00535,,
0.334,-0.09216,0.00515,,
0.335,-0.15216,0.00464,,
0.336,-0.21878,0.00376,,
0.337,-0.29067,0.0025,,
0.338,-0.36601,8.68E-04,,
0.339,-0.44241,-0.00112,,
0.34,-0.51743,-0.00343,,
0.341,-0.58896,-0.00598,,
0.342,-0.6548,-0.00869,,
0.343,-0.71243,-0.01148,,
0.344,-0.75909,-0.01423,,
0.345,-0.79287,-0.01681,,
0.346,-0.81292,-0.01914,,
0.347,-0.81854,-0.02111,,
0.348,-0.80911,-0.02264,,
0.349,-0.78425,-0.02363,,
0.35,-0.74472,-0.02405,,
0.351,-0.69256,-0.02389,,
0.352,-0.62984,-0.02316,,
0.353,-0.5586,-0.02191,,
0.354,-0.48108,-0.02016,,
0.355,-0.40014,-0.01801,,
0.356,-0.31906,-0.01558,,
0.357,-0.24062,-0.01296,,
0.358,-0.16718,-0.01027,,
0.359,-0.10074,-0.00761,,
0.36,-0.0433,-0.00507,,
0.361,0.00405,-0.00275,,
0.362,0.04073,-7.02E-04,,
0.363,0.06667,0.00103,,
0.364,0.08241,0.00242,,
0.365,0.0883,0.00348,,
0.366,0.08624,0.00421,,
0.367,0.07794,0.00466,,
0.368,0.06506,0.00487,,
0.369,0.04949,0.00488,,
0.37,0.03219,0.00472,,
0.371,0.01546,0.00445,,
0.372,7.47E-04,0.0041,,
0.373,-0.01105,0.00372,,
0.374,-0.01926,0.00332,,
0.375,-0.02428,0.00288,,
0.376,-0.02561,0.00246,,
0.377,-0.02344,0.00205,,
0.378,-0.01838,0.00167,,
0.379,-0.01118,0.00133,,
0.38,-0.00302,0.00102,,
0.381,0.00552,7.80E-04,,
0.382,0.01381,6.33E-04,,
0.383,0.02122,5.98E-04,,
0.384,0.02726,6.88E-04,,
0.385,0.03158,9.18E-04,,
0.386,0.0341,0.0013,,
0.387,0.03493,0.00182,,
0.388,0.03431,0.00247,,
0.389,0.03252,0.00322,,
0.39,0.03004,0.00401,,
0.391,0.02718,0.0048,,
0.392,0.02428,0.00552,,
0.393,0.02163,0.00611,,
0.394,0.01942,0.0065,,
0.395,0.01776,0.00664,,
0.396,0.01663,0.00649,,
0.397,0.01591,0.00603,,
0.398,0.01542,0.00526,,
0.399,0.01495,0.00419,,
0.4,0.01428,0.00289,,
0.401,0.01326,0.0014,,
0.402,0.01179,-1.76E-04,,
0.403,0.00982,-0.00176,,
0.404,0.00738,-0.00326,,
0.405,0.00463,-0.00457,,
0.406,0.00178,-0.00561,,
0.407,-8.80E-04,-0.00632,,
0.408,-0.00308,-0.00666,,
0.409,-0.00459,-0.00659,,
0.41,-0.00512,-0.00612,,
0.411,-0.00457,-0.00529,,
0.412,-0.00291,-0.00415,,
0.413,-2.02E-04,-0.00278,,
0.414,0.00333,-0.00124,,
0.415,0.00743,3.51E-04,,
0.416,0.01166,0.0019,,
0.417,0.01558,0.00332,,
0.418,0.01875,0.00452,,
0.419,0.02074,0.00547,,
0.42,0.02123,0.00609,,
0.421,0.01997,0.00638,,
0.422,0.01689,0.00634,,
0.423,0.01203,0.006,,
0.424,0.00562,0.00541,,
0.425,-0.00192,0.00464,,
0.426,-0.0101,0.00378,,
0.427,-0.01834,0.0029,,
0.428,-0.02604,0.0021,,
0.429,-0.03259,0.00146,,
0.43,-0.03741,0.00105,,
0.431,-0.04011,9.43E-04,,
0.432,-0.04043,0.00116,,
0.433,-0.0383,0.00172,,
0.434,-0.03385,0.00259,,
0.435,-0.02735,0.00374,,
0.436,-0.01932,0.0051,,
0.437,-0.01037,0.00659,,
0.438,-0.00118,0.00811,,
0.439,0.00746,0.00954,,
0.44,0.01489,0.01078,,
0.441,0.02046,0.01174,,
0.442,0.02369,0.01233,,
0.443,0.02427,0.01249,,
0.444,0.02204,0.01218,,
0.445,0.01713,0.01139,,
0.446,0.00986,0.01016,,
0.447,6.77E-04,0.00854,,
0.448,-0.00981,0.00659,,
0.449,-0.0209,0.00443,,
0.45,-0.03181,0.00216,,
0.451,-0.0418,-9.03E-05,,
0.452,-0.05024,-0.00222,,
0.453,-0.05663,-0.00413,,
0.454,-0.06062,-0.00572,,
0.455,-0.06198,-0.00693,,
0.456,-0.06077,-0.00773,,
0.457,-0.0572,-0.00811,,
0.458,-0.05167,-0.00809,,
0.459,-0.04474,-0.00769,,
0.46,-0.03697,-0.00697,,
0.461,-0.02907,-0.00601,,
0.462,-0.02168,-0.00488,,
0.463,-0.01539,-0.00366,,
0.464,-0.01076,-0.00242,,
0.465,-0.00808,-0.00122,,
0.466,-0.0076,-1.05E-04,,
0.467,-0.00935,8.81E-04,,
0.468,-0.01323,0.00172,,
0.469,-0.01899,0.00239,,
0.47,-0.02618,0.00292,,
0.471,-0.03436,0.00331,,
0.472,-0.04301,0.00357,,
0.473,-0.05163,0.00372,,
0.474,-0.05972,0.00377,,
0.475,-0.06682,0.00374,,
0.476,-0.0726,0.00364,,
0.477,-0.07685,0.00347,,
0.478,-0.0795,0.00322,,
0.479,-0.08056,0.0029,,
0.48,-0.08012,0.00248,,
0.481,-0.07842,0.00197,,
0.482,-0.07574,0.00136,,
0.483,-0.07241,6.65E-04,,
0.484,-0.0688,-1.22E-04,,
0.485,-0.06518,-9.93E-04,,
0.486,-0.06187,-0.00192,,
0.487,-0.0591,-0.00289,,
0.488,-0.05705,-0.00386,,
0.489,-0.05588,-0.00479,,
0.49,-0.05554,-0.00565,,
0.491,-0.05604,-0.00639,,
0.492,-0.05734,-0.00699,,
0.493,-0.05933,-0.0074,,
0.494,-0.06194,-0.00759,,
0.495,-0.06495,-0.00754,,
0.496,-0.06827,-0.00725,,
0.497,-0.07182,-0.0067,,
0.498,-0.0755,-0.00592,,
0.499,-0.07929,-0.00492,,
0.5,-0.08308,-0.00374,,
0.501,-0.08687,-0.00243,,
0.502,-0.09062,-0.00105,,
0.503,-0.09434,3.51E-04,,
0.504,-0.09803,0.00169,,
0.505,-0.10159,0.00291,,
0.506,-0.105,0.00394,,
0.507,-0.10819,0.00473,,
0.508,-0.1111,0.00524,,
0.509,-0.11368,0.00544,,
0.51,-0.11577,0.00533,,
0.511,-0.11735,0.00491,,
0.512,-0.11837,0.00423,,
0.513,-0.11882,0.00334,,
0.514,-0.11878,0.00229,,
0.515,-0.11819,0.00117,,
0.516,-0.11721,5.36E-05,,
0.517,-0.11598,-9.66E-04,,
0.518,-0.11469,-0.00182,,
0.519,-0.11355,-0.00245,,
0.52,-0.11266,-0.00281,,
0.521,-0.11225,-0.00287,,
0.522,-0.11246,-0.00263,,
0.523,-0.11344,-0.00211,,
0.524,-0.1153,-0.00136,,
0.525,-0.11797,-4.28E-04,,
0.526,-0.12144,6.06E-04,,
0.527,-0.12561,0.00167,,
0.528,-0.13035,0.00268,,
0.529,-0.13554,0.00357,,
0.53,-0.14086,0.00426,,
0.531,-0.14614,0.00471,,
0.532,-0.15116,0.00489,,
0.533,-0.15577,0.00478,,
0.534,-0.15983,0.00439,,
0.535,-0.16318,0.00374,,
0.536,-0.1658,0.00287,,
0.537,-0.16773,0.00183,,
0.538,-0.16902,6.66E-04,,
0.539,-0.16982,-5.57E-04,,
0.54,-0.1702,-0.00178,,
0.541,-0.17039,-0.00294,,
0.542,-0.17057,-0.004,,
0.543,-0.17091,-0.00492,,
0.544,-0.17156,-0.00566,,
0.545,-0.17255,-0.00621,,
0.546,-0.174,-0.00654,,
0.547,-0.17591,-0.00666,,
0.548,-0.17824,-0.00658,,
0.549,-0.18093,-0.00631,,
0.55,-0.18374,-0.00587,,
0.551,-0.18659,-0.00529,,
0.552,-0.1893,-0.0046,,
0.553,-0.19173,-0.00385,,
0.554,-0.19374,-0.00308,,
0.555,-0.19517,-0.00233,,
0.556,-0.19598,-0.00165,,
0.557,-0.19619,-0.00108,,
0.558,-0.19583,-6.59E-04,,
0.559,-0.19499,-4.18E-04,,
0.56,-0.19379,-3.76E-04,,
0.561,-0.19243,-5.46E-04,,
0.562,-0.19109,-9.26E-04,,
0.563,-0.18997,-0.0015,,
0.564,-0.18924,-0.00224,,
0.565,-0.18904,-0.00309,,
0.566,-0.18948,-0.00401,,
0.567,-0.19063,-0.00494,,
0.568,-0.19245,-0.00582,,
0.569,-0.19484,-0.00658,,
0.57,-0.19767,-0.00717,,
0.571,-0.20076,-0.00755,,
0.572,-0.20388,-0.00769,,
0.573,-0.20678,-0.00757,,
0.574,-0.20919,-0.00719,,
0.575,-0.2109,-0.00658,,
0.576,-0.21171,-0.00576,,
0.577,-0.21151,-0.00479,,
0.578,-0.21021,-0.00373,,
0.579,-0.20781,-0.00263,,
0.58,-0.20441,-0.00157,,
0.581,-0.20018,-5.94E-04,,
0.582,-0.19533,2.32E-04,,
0.583,-0.19012,8.71E-04,,
0.584,-0.1848,0.00129,,
0.585,-0.17973,0.00149,,
0.586,-0.17519,0.00145,,
0.587,-0.17141,0.0012,,
0.588,-0.16858,7.71E-04,,
0.589,-0.16676,2.01E-04,,
0.59,-0.16606,-4.65E-04,,
0.591,-0.16644,-0.00117,,
0.592,-0.16775,-0.00186,,
0.593,-0.1698,-0.00249,,
0.594,-0.17228,-0.003,,
0.595,-0.17497,-0.00338,,
0.596,-0.17755,-0.00359,,
0.597,-0.17971,-0.00362,,
0.598,-0.18116,-0.00347,,
0.599,-0.18159,-0.00314,,
0.6,-0.18093,-0.00267,,
0.601,-0.17905,-0.0021,,
0.602,-0.17593,-0.00146,,
0.603,-0.17159,-7.95E-04,,
0.604,-0.1661,-1.42E-04,,
0.605,-0.15976,4.48E-04,,
0.606,-0.15278,9.42E-04,,
0.607,-0.14542,0.00132,,
0.608,-0.13793,0.00156,,
0.609,-0.13055,0.00168,,
0.61,-0.12365,0.00169,,
0.611,-0.11741,0.00161,,
0.612,-0.11198,0.00149,,
0.613,-0.10745,0.00136,,
0.614,-0.1038,0.00128,,
0.615,-0.10114,0.00128,,
0.616,-0.09935,0.0014,,
0.617,-0.09829,0.00168,,
0.618,-0.09777,0.00213,,
0.619,-0.09751,0.00272,,
0.62,-0.09745,0.00344,,
0.621,-0.09732,0.00425,,
0.622,-0.09691,0.00509,,
0.623,-0.09602,0.00589,,
0.624,-0.09441,0.0066,,
0.625,-0.09217,0.00714,,
0.626,-0.08916,0.00745,,
0.627,-0.08534,0.0075,,
0.628,-0.08074,0.00726,,
0.629,-0.07534,0.00674,,
0.63,-0.06941,0.00594,,
0.631,-0.06301,0.00494,,
0.632,-0.05626,0.00378,,
0.633,-0.04929,0.00256,,
0.634,-0.04224,0.00136,,
0.635,-0.03538,2.61E-04,,
0.636,-0.02877,-6.45E-04,,
0.637,-0.02252,-0.0013,,
0.638,-0.01672,-0.00165,,
0.639,-0.01143,-0.00169,,
0.64,-0.00682,-0.00142,,
0.641,-0.00284,-8.72E-04,,
0.642,5.02E-04,-1.08E-04,,
0.643,0.00322,8.00E-04,,
0.644,0.00531,0.00176,,
0.645,0.00672,0.00269,,
0.646,0.00756,0.00349,,
0.647,0.00789,0.00409,,
0.648,0.00776,0.00444,,
0.649,0.00721,0.00449,,
0.65,0.00622,0.00424,,
0.651,0.00492,0.0037,,
0.652,0.0034,0.00291,,
0.653,0.00173,0.00194,,
0.654,-2.11E-05,8.55E-04,,
0.655,-0.00183,-2.44E-04,,
0.656,-0.00358,-0.00128,,
0.657,-0.00517,-0.00216,,
0.658,-0.00653,-0.00283,,
0.659,-0.00758,-0.00323,,
0.66,-0.00833,-0.00332,,
0.661,-0.00871,-0.00309,,
0.662,-0.00871,-0.00256,,
0.663,-0.00832,-0.00176,,
0.664,-0.00754,-7.45E-04,,
0.665,-0.00646,4.17E-04,,
0.666,-0.00513,0.00165,,
0.667,-0.00365,0.00286,,
0.668,-0.00208,0.00399,,
0.669,-4.82E-04,0.00495,,
0.67,0.00104,0.00568,,
0.671,0.00241,0.00613,,
0.672,0.00358,0.00628,,
0.673,0.00454,0.00613,,
0.674,0.00528,0.00568,,
0.675,0.00585,0.00497,,
0.676,0.00629,0.00406,,
0.677,0.00669,0.003,,
0.678,0.00713,0.00186,,
0.679,0.0077,7.35E-04,,
0.68,0.0085,-3.08E-04,,
0.681,0.0096,-0.0012,,
0.682,0.01106,-0.00187,,
0.683,0.01291,-0.00229,,
0.684,0.01508,-0.00243,,
0.685,0.01752,-0.00228,,
0.686,0.02012,-0.00185,,
0.687,0.02275,-0.00118,,
0.688,0.02523,-3.25E-04,,
0.689,0.02737,6.68E-04,,
0.69,0.02895,0.00172,,
0.691,0.0298,0.00277,,
0.692,0.02978,0.00374,,
0.693,0.0288,0.00458,,
0.694,0.02681,0.00524,,
0.695,0.02383,0.0057,,
0.696,0.01997,0.00594,,
0.697,0.01541,0.00597,,
0.698,0.01038,0.00581,,
0.699,0.00518,0.0055,,
0.7,1.46E-04,0.00508,,
0.701,-0.00437,0.00461,,
0.702,-0.00805,0.00413,,
0.703,-0.01059,0.00369,,
0.704,-0.01181,0.00332,,
0.705,-0.01149,0.00305,,
0.706,-0.00963,0.00289,,
0.707,-0.00627,0.00284,,
0.708,-0.00159,0.0029,,
0.709,0.0041,0.00304,,
0.71,0.01046,0.00323,,
0.711,0.01704,0.00345,,
0.712,0.02336,0.00367,,
0.713,0.02895,0.00388,,
0.714,0.03332,0.00406,,
0.715,0.0361,0.0042,,
0.716,0.03698,0.00431,,
0.717,0.03578,0.0044,,
0.718,0.03246,0.00448,,
0.719,0.02712,0.00458,,
0.72,0.01999,0.00471,,
0.721,0.01148,0.00489,,
0.722,0.00204,0.00512,,
0.723,-0.00779,0.00541,,
0.724,-0.01741,0.00576,,
0.725,-0.02623,0.00614,,
0.726,-0.03372,0.00654,,
0.727,-0.03946,0.00694,,
0.728,-0.04311,0.00731,,
0.729,-0.04447,0.00763,,
0.73,-0.04352,0.00786,,
0.731,-0.0404,0.00802,,
0.732,-0.03541,0.00807,,
0.733,-0.02892,0.00804,,
0.734,-0.0214,0.00793,,
0.735,-0.01341,0.00774,,
0.736,-0.00555,0.00752,,
0.737,0.00166,0.00728,,
0.738,0.00778,0.00705,,
0.739,0.01248,0.00684,,
0.74,0.01553,0.00668,,
0.741,0.01685,0.00657,,
0.742,0.0165,0.00653,,
0.743,0.01469,0.00653,,
0.744,0.01176,0.00658,,
0.745,0.00814,0.00665,,
0.746,0.00428,0.00672,,
0.747,6.57E-04,0.00678,,
0.748,-0.0023,0.0068,,
0.749,-0.00423,0.00676,,
0.75,-0.00486,0.00665,,
0.751,-0.00402,0.00648,,
0.752,-0.0017,0.00623,,
0.753,0.00198,0.00591,,
0.754,0.00675,0.00553,,
0.755,0.01225,0.00512,,
0.756,0.01808,0.00469,,
0.757,0.02381,0.00427,,
0.758,0.02898,0.00386,,
0.759,0.03315,0.0035,,
0.76,0.03595,0.00319,,
0.761,0.03718,0.00296,,
0.762,0.03672,0.0028,,
0.763,0.03457,0.00271,,
0.764,0.0308,0.00268,,
0.765,0.0257,0.00271,,
0.766,0.01961,0.00277,,
0.767,0.01291,0.00285,,
0.768,0.00602,0.00292,,
0.769,-6.58E-04,0.00296,,
0.77,-0.00671,0.00295,,
0.771,-0.01181,0.00286,,
0.772,-0.01575,0.00269,,
0.773,-0.01841,0.00243,,
0.774,-0.01978,0.00208,,
0.775,-0.01993,0.00165,,
0.776,-0.01907,0.00115,,
0.777,-0.01747,6.25E-04,,
0.778,-0.01543,8.95E-05,,
0.779,-0.01327,-4.18E-04,,
0.78,-0.01132,-8.58E-04,,
0.781,-0.00989,-0.0012,,
0.782,-0.0092,-0.00142,,
0.783,-0.00938,-0.0015,,
0.784,-0.01046,-0.00143,,
0.785,-0.01237,-0.00121,,
0.786,-0.01501,-8.68E-04,,
0.787,-0.01817,-4.29E-04,,
0.788,-0.02158,6.74E-05,,
0.789,-0.02491,5.84E-04,,
0.79,-0.0278,0.00107,,
0.791,-0.02998,0.00147,,
0.792,-0.03123,0.00176,,
0.793,-0.03135,0.00191,,
0.794,-0.03022,0.00192,,
0.795,-0.02781,0.00177,,
0.796,-0.02422,0.00151,,
0.797,-0.0196,0.00116,,
0.798,-0.01421,7.73E-04,,
0.799,-0.00836,4.08E-04,,
0.8,-0.0024,1.24E-04,,
0.801,0.00333,-2.37E-05,,
0.802,0.0085,9.97E-06,,
0.803,0.01279,2.56E-04,,
0.804,0.01593,7.26E-04,,
0.805,0.01773,0.00141,,
0.806,0.01809,0.00227,,
0.807,0.01701,0.00327,,
0.808,0.01457,0.00435,,
0.809,0.0109,0.00541,,
0.81,0.00622,0.00638,,
0.811,8.12E-04,0.0072,,
0.812,-0.00503,0.00779,,
0.813,-0.01097,0.00811,,
0.814,-0.01667,0.00812,,
0.815,-0.02186,0.00783,,
0.816,-0.02627,0.00726,,
0.817,-0.02968,0.00645,,
0.818,-0.03194,0.00547,,
0.819,-0.03292,0.00437,,
0.82,-0.03263,0.00325,,
0.821,-0.03111,0.00219,,
0.822,-0.02843,0.00126,,
0.823,-0.02475,5.13E-04,,
0.824,-0.02021,1.47E-06,,
0.825,-0.01506,-2.57E-04,,
0.826,-0.00953,-2.63E-04,,
0.827,-0.00387,-3.98E-05,,
0.828,0.00171,3.74E-04,,
0.829,0.00698,9.22E-04,,
0.83,0.01176,0.00154,,
0.831,0.01586,0.00216,,
0.832,0.01917,0.00272,,
0.833,0.0216,0.00315,,
0.834,0.02312,0.00343,,
0.835,0.02373,0.00351,,
0.836,0.0235,0.00339,,
0.837,0.02253,0.00306,,
0.838,0.02094,0.00256,,
0.839,0.01886,0.00193,,
0.84,0.01646,0.00121,,
0.841,0.01395,4.53E-04,,
0.842,0.01152,-2.76E-04,,
0.843,0.00929,-9.21E-04,,
0.844,0.00739,-0.00142,,
0.845,0.00589,-0.00173,,
0.846,0.00488,-0.00183,,
0.847,0.00439,-0.0017,,
0.848,0.00436,-0.00132,,
0.849,0.0047,-7.10E-04,,
0.85,0.0053,1.05E-04,,
0.851,0.00601,0.00109,,
0.852,0.00669,0.0022,,
0.853,0.00719,0.00338,,
0.854,0.00733,0.0046,,
0.855,0.00702,0.00577,,
0.856,0.00613,0.00687,,
0.857,0.00463,0.00784,,
0.858,0.00253,0.00867,,
0.859,-1.18E-04,0.00933,,
0.86,-0.00318,0.0098,,
0.861,-0.00651,0.01011,,
0.862,-0.00993,0.01025,,
0.863,-0.01323,0.01027,,
0.864,-0.01618,0.01019,,
0.865,-0.01855,0.01004,,
0.866,-0.02017,0.00987,,
0.867,-0.0209,0.0097,,
0.868,-0.02064,0.00957,,
0.869,-0.01939,0.0095,,
0.87,-0.01715,0.00948,,
0.871,-0.01404,0.00952,,
0.872,-0.01024,0.00963,,
0.873,-0.00595,0.00978,,
0.874,-0.00147,0.00995,,
0.875,0.00294,0.01011,,
0.876,0.00699,0.01025,,
0.877,0.01041,0.01036,,
0.878,0.01295,0.01041,,
0.879,0.01441,0.0104,,
0.88,0.01468,0.01033,,
0.881,0.01371,0.01021,,
0.882,0.01152,0.01005,,
0.883,0.0082,0.00986,,
0.884,0.00394,0.00965,,
0.885,-0.00103,0.00943,,
0.886,-0.00643,0.00921,,
0.887,-0.01194,0.00899,,
0.888,-0.01728,0.00876,,
0.889,-0.02212,0.0085,,
0.89,-0.0262,0.00819,,
0.891,-0.02929,0.00781,,
0.892,-0.03125,0.00735,,
0.893,-0.032,0.00677,,
0.894,-0.03154,0.00607,,
0.895,-0.02992,0.00526,,
0.896,-0.0273,0.00433,,
0.897,-0.02387,0.00333,,
0.898,-0.0199,0.00227,,
0.899,-0.01569,0.00121,,
0.9,-0.01148,1.98E-04,,
0.901,-0.00758,-7.10E-04,,
0.902,-0.00423,-0.00147,,
0.903,-0.00166,-0.00204,,
0.904,-6.44E-05,-0.00239,,
0.905,5.17E-04,-0.00249,,
0.906,3.57E-05,-0.00236,,
0.907,-0.00148,-0.00202,,
0.908,-0.00394,-0.0015,,
0.909,-0.00728,-8.62E-04,,
0.91,-0.01125,-1.55E-04,,
0.911,-0.01568,5.45E-04,,
0.912,-0.02037,0.00117,,
0.913,-0.02514,0.00166,,
0.914,-0.02985,0.00195,,
0.915,-0.03432,0.00202,,
0.916,-0.03845,0.00184,,
0.917,-0.04218,0.00141,,
0.918,-0.0455,7.33E-04,,
0.919,-0.04838,-1.57E-04,,
0.92,-0.05087,-0.00121,,
0.921,-0.05302,-0.00238,,
0.922,-0.05491,-0.0036,,
0.923,-0.05658,-0.00483,,
0.924,-0.05804,-0.00601,,
0.925,-0.05933,-0.00709,,
0.926,-0.06049,-0.00802,,
0.927,-0.06153,-0.00879,,
0.928,-0.06238,-0.00938,,
0.929,-0.06292,-0.00978,,
0.93,-0.06312,-0.00999,,
0.931,-0.06293,-0.01003,,
0.932,-0.06231,-0.00992,,
0.933,-0.06116,-0.00967,,
0.934,-0.05937,-0.00932,,
0.935,-0.05696,-0.00889,,
0.936,-0.05397,-0.00841,,
0.937,-0.05043,-0.0079,,
0.938,-0.04639,-0.00738,,
0.939,-0.04184,-0.00686,,
0.94,-0.03696,-0.00636,,
0.941,-0.03185,-0.00589,,
0.942,-0.02661,-0.00546,,
0.943,-0.02134,-0.00507,,
0.944,-0.01608,-0.00472,,
0.945,-0.01099,-0.00441,,
0.946,-0.00607,-0.00414,,
0.947,-0.00136,-0.00391,,
0.948,0.00312,-0.00371,,
0.949,0.00741,-0.00353,,
0.95,0.01141,-0.00338,,
0.951,0.01521,-0.00325,,
0.952,0.01884,-0.00314,,
0.953,0.02228,-0.00305,,
0.954,0.02553,-0.00296,,
0.955,0.02848,-0.0029,,
0.956,0.03113,-0.00284,,
0.957,0.03344,-0.00279,,
0.958,0.03534,-0.00274,,
0.959,0.03676,-0.00268,,
0.96,0.03751,-0.0026,,
0.961,0.03761,-0.0025,,
0.962,0.03704,-0.00236,,
0.963,0.03577,-0.00216,,
0.964,0.03386,-0.00191,,
0.965,0.03129,-0.00159,,
0.966,0.02824,-0.00121,,
0.967,0.02487,-7.59E-04,,
0.968,0.02135,-2.60E-04,,
0.969,0.01793,2.69E-04,,
0.97,0.01478,8.04E-04,,
0.971,0.01214,0.00132,,
0.972,0.01021,0.00178,,
0.973,0.00915,0.00216,,
0.974,0.0091,0.00242,,
0.975,0.0101,0.00253,,
0.976,0.01213,0.00248,,
0.977,0.01512,0.00227,,
0.978,0.01895,0.00189,,
0.979,0.02342,0.00136,,
0.98,0.02829,7.07E-04,,
0.981,0.03329,-3.55E-05,,
0.982,0.03816,-8.25E-04,,
0.983,0.04263,-0.00162,,
0.984,0.04646,-0.00239,,
0.985,0.04945,-0.00308,,
0.986,0.05148,-0.00368,,
0.987,0.05249,-0.00418,,
0.988,0.05246,-0.00456,,
0.989,0.05143,-0.00482,,
0.99,0.04953,-0.005,,
0.991,0.04693,-0.00512,,
0.992,0.04383,-0.00521,,
0.993,0.04044,-0.00529,,
0.994,0.03694,-0.00538,,
0.995,0.03352,-0.0055,,
0.996,0.03035,-0.00567,,
0.997,0.02753,-0.00586,,
0.998,0.02514,-0.00607,,
0.999,0.02322,-0.00626,,
1.0,0.02174,-0.0064,,
1.001,0.02068,-0.00644,,
1.002,0.01999,-0.00636,,
1.003,0.01959,-0.00611,,
1.004,0.01944,-0.00569,,
1.005,0.01949,-0.00508,,
1.006,0.01974,-0.00429,,
1.007,0.02017,-0.00336,,
1.008,0.02084,-0.00233,,
1.009,0.02176,-0.00125,,
1.01,0.023,-1.85E-04,,
1.011,0.02456,7.87E-04,,
1.012,0.02644,0.0016,,
1.013,0.02867,0.00221,,
1.014,0.03121,0.00257,,
1.015,0.03391,0.00263,,
1.016,0.03658,0.00242,,
1.017,0.03901,0.00193,,
1.018,0.04104,0.0012,,
1.019,0.04254,3.03E-04,,
1.02,0.04323,-7.14E-04,,
1.021,0.04301,-0.00176,,
1.022,0.04178,-0.00276,,
1.023,0.03958,-0.00364,,
1.024,0.03656,-0.00433,,
1.025,0.03307,-0.00478,,
1.026,0.02957,-0.00494,,
1.027,0.02652,-0.0048,,
1.028,0.02439,-0.00437,,
1.029,0.02344,-0.00367,,
1.03,0.02464,-0.00275,,
1.031,0.0285,-0.00167,,
1.032,0.03536,-4.81E-04,,
1.033,0.04516,7.21E-04,,
1.034,0.05709,0.00184,,
1.035,0.07145,0.0028,,
1.036,0.08749,0.00355,,
1.037,0.10429,0.00402,,
1.038,0.12037,0.00416,,
1.039,0.13339,0.00391,,
1.04,0.14246,0.00328,,
1.041,0.14584,0.00228,,
1.042,0.14196,9.20E-04,,
1.043,0.1292,-7.58E-04,,
1.044,0.10578,-0.00272,,
1.045,0.07142,-0.00489,,
1.046,0.02572,-0.00718,,
1.047,-0.03113,-0.00954,,
1.048,-0.09841,-0.01189,,
1.049,-0.17478,-0.01416,,
1.05,-0.25804,-0.01627,,
1.051,-0.34596,-0.01819,,
1.052,-0.43589,-0.01988,,
1.053,-0.52471,-0.0213,,
1.054,-0.60872,-0.02244,,
1.055,-0.68467,-0.02329,,
1.056,-0.75006,-0.02388,,
1.057,-0.80257,-0.02423,,
1.058,-0.83992,-0.02436,,
1.059,-0.85993,-0.02429,,
1.06,-0.86181,-0.02404,,
1.061,-0.8462,-0.02367,,
1.062,-0.81405,-0.0232,,
1.063,-0.76649,-0.02265,,
1.064,-0.70498,-0.02201,,
1.065,-0.63206,-0.0213,,
1.066,-0.5513,-0.02053,,
1.067,-0.46595,-0.01972,,
1.068,-0.37894,-0.01887,,
1.069,-0.29305,-0.01795,,
1.07,-0.21121,-0.01699,,
1.071,-0.13608,-0.016,,
1.072,-0.0696,-0.01498,,
1.073,-0.01305,-0.01396,,
1.074,0.03287,-0.01293,,
1.075,0.06756,-0.01191,,
1.076,0.09168,-0.01093,,
1.077,0.1061,-0.00998,,
1.078,0.11193,-0.00907,,
1.079,0.11066,-0.00819,,
1.08,0.10321,-0.00735,,
1.081,0.09195,-0.00655,,
1.082,0.07861,-0.00575,,
1.083,0.0645,-0.00496,,
1.084,0.05087,-0.00416,,
1.085,0.03787,-0.00338,,
1.086,0.02689,-0.00259,,
1.087,0.01848,-0.00181,,
1.088,0.01266,-0.00105,,
1.089,0.0093,-3.39E-04,,
1.09,0.00749,2.68E-04,,
1.091,0.00727,7.56E-04,,
1.092,0.0083,0.0011,,
1.093,0.01009,0.00126,,
1.094,0.01219,0.00124,,
1.095,0.014,0.001,,
1.096,0.0154,5.73E-04,,
1.097,0.01631,-1.82E-05,,
1.098,0.01676,-7.34E-04,,
1.099,0.01681,-0.00152,,
1.1,0.01667,-0.00232,,
1.101,0.01647,-0.00307,,
1.102,0.01641,-0.00369,,
1.103,0.01672,-0.00412,,
1.104,0.01756,-0.00432,,
1.105,0.01911,-0.00425,,
1.106,0.02133,-0.0039,,
1.107,0.02413,-0.00328,,
1.108,0.02738,-0.0024,,
1.109,0.0309,-0.00133,,
1.11,0.03448,-1.19E-04,,
1.111,0.03789,0.00116,,
1.112,0.0409,0.00242,,
1.113,0.04327,0.00359,,
1.114,0.04481,0.00459,,
1.115,0.04542,0.00536,,
1.116,0.04511,0.00585,,
1.117,0.0439,0.00605,,
1.118,0.04189,0.00594,,
1.119,0.03918,0.00553,,
1.12,0.03597,0.00485,,
1.121,0.03246,0.00396,,
1.122,0.02887,0.0029,,
1.123,0.02535,0.00175,,
1.124,0.02205,5.57E-04,,
1.125,0.01909,-6.00E-04,,
1.126,0.01653,-0.00166,,
1.127,0.01438,-0.00259,,
1.128,0.01261,-0.00333,,
1.129,0.01115,-0.00388,,
1.13,0.00993,-0.00422,,
1.131,0.00887,-0.00435,,
1.132,0.00786,-0.00431,,
1.133,0.00683,-0.0041,,
1.134,0.00574,-0.00378,,
1.135,0.00459,-0.00337,,
1.136,0.00337,-0.00293,,
1.137,0.00213,-0.0025,,
1.138,9.19E-04,-0.00211,,
1.139,-1.75E-04,-0.00178,,
1.14,-0.00103,-0.00154,,
1.141,-0.00163,-0.00139,,
1.142,-0.00191,-0.00134,,
1.143,-0.00184,-0.00136,,
1.144,-0.00141,-0.00142,,
1.145,-6.35E-04,-0.0015,,
1.146,3.86E-04,-0.00155,,
1.147,0.00156,-0.00153,,
1.148,0.00277,-0.00141,,
1.149,0.00394,-0.00115,,
1.15,0.00496,-7.37E-04,,
1.151,0.00573,-1.54E-04,,
1.152,0.0062,5.92E-04,,
1.153,0.00634,0.00148,,
1.154,0.00616,0.00248,,
1.155,0.00574,0.00353,,
1.156,0.00515,0.00458,,
1.157,0.00452,0.00558,,
1.158,0.00396,0.00646,,
1.159,0.00358,0.00716,,
1.16,0.00352,0.00763,,
1.161,0.00385,0.00784,,
1.162,0.00462,0.00777,,
1.163,0.00583,0.00743,,
1.164,0.00741,0.00682,,
1.165,0.00927,0.00597,,
1.166,0.01129,0.00496,,
1.167,0.01329,0.00382,,
1.168,0.01509,0.00263,,
1.169,0.01647,0.00144,,
1.17,0.01726,3.13E-04,,
1.171,0.01734,-6.96E-04,,
1.172,0.01661,-0.00155,,
1.173,0.01502,-0.00224,,
1.174,0.01255,-0.00274,,
1.175,0.00931,-0.00306,,
1.176,0.00544,-0.00323,,
1.177,0.00112,-0.00327,,
1.178,-0.00344,-0.00321,,
1.179,-0.00803,-0.00308,,
1.18,-0.01237,-0.00292,,
1.181,-0.01625,-0.00276,,
1.182,-0.0195,-0.00261,,
1.183,-0.02197,-0.0025,,
1.184,-0.02362,-0.00241,,
1.185,-0.02437,-0.00234,,
1.186,-0.0243,-0.00229,,
1.187,-0.0235,-0.00225,,
1.188,-0.02214,-0.00219,,
1.189,-0.02044,-0.00211,,
1.19,-0.01855,-0.00199,,
1.191,-0.01673,-0.00183,,
1.192,-0.01518,-0.00162,,
1.193,-0.01409,-0.00137,,
1.194,-0.01363,-0.0011,,
1.195,-0.01384,-8.16E-04,,
1.196,-0.01479,-5.33E-04,,
1.197,-0.01647,-2.73E-04,,
1.198,-0.01882,-5.23E-05,,
1.199,-0.02177,1.13E-04,,
1.2,-0.0251,2.08E-04,,
1.201,-0.02865,2.26E-04,,
1.202,-0.03227,1.63E-04,,
1.203,-0.03579,2.11E-05,,
1.204,-0.03908,-1.94E-04,,
1.205,-0.04195,-4.77E-04,,
1.206,-0.04431,-8.12E-04,,
1.207,-0.04611,-0.00118,,
1.208,-0.04738,-0.00157,,
1.209,-0.04818,-0.00195,,
1.21,-0.04852,-0.00231,,
1.211,-0.04854,-0.00262,,
1.212,-0.04837,-0.00286,,
1.213,-0.04819,-0.00302,,
1.214,-0.0482,-0.00307,,
1.215,-0.04846,-0.00301,,
1.216,-0.04915,-0.00283,,
1.217,-0.05038,-0.00254,,
1.218,-0.05221,-0.00214,,
1.219,-0.05474,-0.00166,,
1.22,-0.05787,-0.00111,,
1.221,-0.06157,-5.19E-04,,
1.222,-0.06577,6.91E-05,,
1.223,-0.07036,6.21E-04,,
1.224,-0.07524,0.0011,,
1.225,-0.08015,0.00147,,
1.226,-0.08497,0.00171,,
1.227,-0.08957,0.0018,,
1.228,-0.09382,0.00174,,
1.229,-0.09762,0.00151,,
1.23,-0.10082,0.00115,,
1.231,-0.10342,6.78E-04,,
1.232,-0.10543,1.27E-04,,
1.233,-0.1069,-4.67E-04,,
1.234,-0.10789,-0.00107,,
1.235,-0.10843,-0.00164,,
1.236,-0.1087,-0.00216,,
1.237,-0.10882,-0.00259,,
1.238,-0.10892,-0.00293,,
1.239,-0.10912,-0.00317,,
1.24,-0.10942,-0.00334,,
1.241,-0.10992,-0.00346,,
1.242,-0.11068,-0.00355,,
1.243,-0.11167,-0.00365,,
1.244,-0.11289,-0.00378,,
1.245,-0.11416,-0.00397,,
1.246,-0.11543,-0.00424,,
1.247,-0.11659,-0.0046,,
1.248,-0.11756,-0.00504,,
1.249,-0.11831,-0.00552,,
1.25,-0.11867,-0.00603,,
1.251,-0.11863,-0.00652,,
1.252,-0.11821,-0.00694,,
1.253,-0.1175,-0.00725,,
1.254,-0.11667,-0.0074,,
1.255,-0.11579,-0.00733,,
1.256,-0.11508,-0.00703,,
1.257,-0.11475,-0.00649,,
1.258,-0.11502,-0.00571,,
1.259,-0.11618,-0.00472,,
1.26,-0.11834,-0.00355,,
1.261,-0.12164,-0.00226,,
1.262,-0.12616,-9.13E-04,,
1.263,-0.13193,4.27E-04,,
1.264,-0.13887,0.00168,,
1.265,-0.14676,0.00276,,
1.266,-0.15538,0.00364,,
1.267,-0.16444,0.00424,,
1.268,-0.17359,0.00455,,
1.269,-0.18242,0.00452,,
1.27,-0.19048,0.00417,,
1.271,-0.19745,0.00351,,
1.272,-0.20302,0.00258,,
1.273,-0.20693,0.00143,,
1.274,-0.20901,1.07E-04,,
1.275,-0.20914,-0.00131,,
1.276,-0.20744,-0.00276,,
1.277,-0.20411,-0.00416,,
1.278,-0.19939,-0.00545,,
1.279,-0.19361,-0.00658,,
1.28,-0.18714,-0.00751,,
1.281,-0.18051,-0.0082,,
1.282,-0.17417,-0.00863,,
1.283,-0.1685,-0.00882,,
1.284,-0.16383,-0.00877,,
1.285,-0.16042,-0.00852,,
1.286,-0.15846,-0.00811,,
1.287,-0.158,-0.0076,,
1.288,-0.15895,-0.00703,,
1.289,-0.16108,-0.00645,,
1.29,-0.16411,-0.0059,,
1.291,-0.16768,-0.00544,,
1.292,-0.17138,-0.00508,,
1.293,-0.1748,-0.00485,,
1.294,-0.17751,-0.00472,,
1.295,-0.1792,-0.0047,,
1.296,-0.17958,-0.00474,,
1.297,-0.17851,-0.00482,,
1.298,-0.17592,-0.00489,,
1.299,-0.17187,-0.00491,,
1.3,-0.16663,-0.00484,,
1.301,-0.16047,-0.00465,,
1.302,-0.15375,-0.00433,,
1.303,-0.14687,-0.00388,,
1.304,-0.14023,-0.00331,,
1.305,-0.13436,-0.00265,,
1.306,-0.12959,-0.00194,,
1.307,-0.1262,-0.00124,,
1.308,-0.12435,-5.91E-04,,
1.309,-0.12405,-5.63E-05,,
1.31,-0.12535,3.10E-04,,
1.311,-0.12805,4.77E-04,,
1.312,-0.13185,4.24E-04,,
1.313,-0.13637,1.46E-04,,
1.314,-0.14107,-3.47E-04,,
1.315,-0.1456,-0.00103,,
1.316,-0.14945,-0.00185,,
1.317,-0.15219,-0.00277,,
1.318,-0.15344,-0.0037,,
1.319,-0.1528,-0.0046,,
1.32,-0.15023,-0.00541,,
1.321,-0.14561,-0.00608,,
1.322,-0.13899,-0.00658,,
1.323,-0.13054,-0.00689,,
1.324,-0.12045,-0.007,,
1.325,-0.10923,-0.00691,,
1.326,-0.09724,-0.00666,,
1.327,-0.08494,-0.00627,,
1.328,-0.07277,-0.00578,,
1.329,-0.06116,-0.00522,,
1.33,-0.05065,-0.00462,,
1.331,-0.04153,-0.004,,
1.332,-0.03404,-0.0034,,
1.333,-0.02835,-0.00281,,
1.334,-0.02451,-0.00225,,
1.335,-0.02262,-0.0017,,
1.336,-0.0225,-0.00116,,
1.337,-0.02392,-6.19E-04,,
1.338,-0.02663,-7.79E-05,,
1.339,-0.03023,4.73E-04,,
1.34,-0.03452,0.00102,,
1.341,-0.03904,0.00157,,
1.342,-0.04338,0.00208,,
1.343,-0.04723,0.00256,,
1.344,-0.05021,0.00297,,
1.345,-0.05221,0.00328,,
1.346,-0.05297,0.00348,,
1.347,-0.05233,0.00355,,
1.348,-0.05027,0.0035,,
1.349,-0.04679,0.00333,,
1.35,-0.04211,0.00305,,
1.351,-0.03636,0.00268,,
1.352,-0.02976,0.00228,,
1.353,-0.02256,0.00188,,
1.354,-0.01507,0.00152,,
1.355,-0.00767,0.00125,,
1.356,-6.90E-04,0.0011,,
1.357,0.00561,0.00111,,
1.358,0.01097,0.0013,,
1.359,0.01521,0.00167,,
1.36,0.01811,0.00222,,
1.361,0.01961,0.00291,,
1.362,0.01974,0.00372,,
1.363,0.01858,0.00461,,
1.364,0.01632,0.00553,,
1.365,0.01311,0.0064,,
1.366,0.00928,0.0072,,
1.367,0.00516,0.00786,,
1.368,0.00109,0.00834,,
1.369,-0.00254,0.00861,,
1.37,-0.0055,0.00864,,
1.371,-0.00742,0.00844,,
1.372,-0.00809,0.00801,,
1.373,-0.00736,0.00738,,
1.374,-0.00514,0.00656,,
1.375,-0.00152,0.00562,,
1.376,0.0034,0.00459,,
1.377,0.00944,0.00354,,
1.378,0.01631,0.00253,,
1.379,0.02365,0.00158,,
1.38,0.03104,7.58E-04,,
1.381,0.03809,9.25E-05,,
1.382,0.04443,-3.95E-04,,
1.383,0.04971,-6.96E-04,,
1.384,0.05363,-8.19E-04,,
1.385,0.05595,-7.80E-04,,
1.386,0.05657,-6.14E-04,,
1.387,0.05548,-3.62E-04,,
1.388,0.05277,-7.01E-05,,
1.389,0.04864,2.17E-04,,
1.39,0.04332,4.55E-04,,
1.391,0.0372,5.99E-04,,
1.392,0.03067,6.20E-04,,
1.393,0.02413,5.04E-04,,
1.394,0.01802,2.53E-04,,
1.395,0.01267,-1.15E-04,,
1.396,0.00844,-5.77E-04,,
1.397,0.00557,-0.0011,,
1.398,0.00422,-0.00162,,
1.399,0.00445,-0.0021,,
1.4,0.00622,-0.00247,,
1.401,0.00941,-0.0027,,
1.402,0.01381,-0.00275,,
1.403,0.01914,-0.0026,,
1.404,0.02506,-0.00224,,
1.405,0.03125,-0.00169,,
1.406,0.03734,-9.69E-04,,
1.407,0.04303,-1.24E-04,,
1.408,0.04803,7.93E-04,,
1.409,0.05203,0.00173,,
1.41,0.05492,0.00261,,
1.411,0.05658,0.0034,,
1.412,0.05698,0.00403,,
1.413,0.05613,0.00449,,
1.414,0.05408,0.00475,,
1.415,0.05099,0.00479,,
1.416,0.04701,0.00464,,
1.417,0.04235,0.00431,,
1.418,0.03717,0.00385,,
1.419,0.03169,0.0033,,
1.42,0.02608,0.00271,,
1.421,0.02053,0.00211,,
1.422,0.01518,0.00156,,
1.423,0.01018,0.0011,,
1.424,0.00568,7.59E-04,,
1.425,0.00175,5.48E-04,,
1.426,-0.0015,4.85E-04,,
1.427,-0.00402,5.71E-04,,
1.428,-0.00572,8.02E-04,,
1.429,-0.00654,0.00117,,
1.43,-0.00642,0.00166,,
1.431,-0.00537,0.00225,,
1.432,-0.00337,0.00293,,
1.433,-4.69E-04,0.00367,,
1.434,0.00327,0.00446,,
1.435,0.00782,0.00527,,
1.436,0.01299,0.00608,,
1.437,0.01862,0.00687,,
1.438,0.0245,0.00763,,
1.439,0.03034,0.00832,,
1.44,0.03594,0.00892,,
1.441,0.04099,0.00941,,
1.442,0.04522,0.00978,,
1.443,0.04836,0.01001,,
1.444,0.05017,0.01007,,
1.445,0.05049,0.00998,,
1.446,0.04921,0.00974,,
1.447,0.04633,0.00936,,
1.448,0.04187,0.00886,,
1.449,0.03599,0.00826,,
1.45,0.0289,0.00759,,
1.451,0.02092,0.00689,,
1.452,0.01242,0.0062,,
1.453,0.00379,0.00554,,
1.454,-0.0045,0.00493,,
1.455,-0.01207,0.0044,,
1.456,-0.0185,0.00396,,
1.457,-0.02348,0.00362,,
1.458,-0.02673,0.00337,,
1.459,-0.02806,0.00318,,
1.46,-0.02742,0.00305,,
1.461,-0.02489,0.00295,,
1.462,-0.02064,0.00285,,
1.463,-0.0149,0.00274,,
1.464,-0.00801,0.00259,,
1.465,-3.61E-04,0.00239,,
1.466,0.00757,0.00212,,
1.467,0.01534,0.00179,,
1.468,0.02254,0.00139,,
1.469,0.02878,9.16E-04,,
1.47,0.0338,3.99E-04,,
1.471,0.03735,-1.58E-04,,
1.472,0.03934,-7.46E-04,,
1.473,0.03976,-0.00135,,
1.474,0.03868,-0.00196,,
1.475,0.03632,-0.00255,,
1.476,0.03297,-0.00313,,
1.477,0.02893,-0.00367,,
1.478,0.02454,-0.00418,,
1.479,0.0201,-0.00464,,
1.48,0.01594,-0.00503,,
1.481,0.01236,-0.00537,,
1.482,0.00956,-0.00564,,
1.483,0.00762,-0.00585,,
1.484,0.00658,-0.00597,,
1.485,0.00634,-0.006,,
1.486,0.00679,-0.00596,,
1.487,0.00773,-0.00586,,
1.488,0.00894,-0.00568,,
1.489,0.01014,-0.00545,,
1.49,0.01105,-0.00516,,
1.491,0.01143,-0.00485,,
1.492,0.0111,-0.00452,,
1.493,0.00995,-0.0042,,
1.494,0.00796,-0.00387,,
1.495,0.00518,-0.00356,,
1.496,0.0017,-0.00327,,
1.497,-0.00227,-0.003,,
1.498,-0.00647,-0.00274,,
1.499,-0.01058,-0.00248,,
1.5,-0.01425,-0.00221,,
1.501,-0.01717,-0.00193,,
1.502,-0.01908,-0.00161,,
1.503,-0.01976,-0.00127,,
1.504,-0.01904,-8.81E-04,,
1.505,-0.01682,-4.65E-04,,
1.506,-0.01317,-2.36E-05,,
1.507,-0.00821,4.33E-04,,
1.508,-0.00218,8.87E-04,,
1.509,0.00459,0.00132,,
1.51,0.01173,0.0017,,
1.511,0.01881,0.00202,,
1.512,0.02541,0.00227,,
1.513,0.03111,0.00243,,
1.514,0.03548,0.0025,,
1.515,0.03823,0.00246,,
1.516,0.03912,0.00235,,
1.517,0.03805,0.00216,,
1.518,0.03502,0.00191,,
1.519,0.03013,0.00162,,
1.52,0.02359,0.0013,,
1.521,0.01578,9.78E-04,,
1.522,0.00709,6.64E-04,,
1.523,-0.00201,3.69E-04,,
1.524,-0.011,1.04E-04,,
1.525,-0.01939,-1.29E-04,,
1.526,-0.0267,-3.24E-04,,
1.527,-0.03256,-4.82E-04,,
1.528,-0.03663,-6.02E-04,,
1.529,-0.03868,-6.87E-04,,
1.53,-0.03864,-7.35E-04,,
1.531,-0.03656,-7.43E-04,,
1.532,-0.03262,-7.11E-04,,
1.533,-0.02705,-6.36E-04,,
1.534,-0.02017,-5.23E-04,,
1.535,-0.01244,-3.65E-04,,
1.536,-0.00435,-1.67E-04,,
1.537,0.00365,6.27E-05,,
1.538,0.01114,3.14E-04,,
1.539,0.01778,5.67E-04,,
1.54,0.02326,8.07E-04,,
1.541,0.02735,0.00101,,
1.542,0.02998,0.00114,,
1.543,0.03117,0.0012,,
1.544,0.03108,0.00114,,
1.545,0.02993,9.68E-04,,
1.546,0.02804,6.60E-04,,
1.547,0.02576,2.18E-04,,
1.548,0.02346,-3.49E-04,,
1.549,0.02147,-0.00101,,
1.55,0.02009,-0.00176,,
1.551,0.01962,-0.00254,,
1.552,0.02021,-0.00333,,
1.553,0.02191,-0.00408,,
1.554,0.02463,-0.00473,,
1.555,0.02818,-0.00525,,
1.556,0.03233,-0.00559,,
1.557,0.03677,-0.00573,,
1.558,0.04113,-0.00564,,
1.559,0.04499,-0.0053,,
1.56,0.04792,-0.00472,,
1.561,0.04962,-0.0039,,
1.562,0.04984,-0.00288,,
1.563,0.04843,-0.00167,,
1.564,0.04536,-3.26E-04,,
1.565,0.04068,0.0011,,
1.566,0.03463,0.00253,,
1.567,0.02752,0.00392,,
1.568,0.01977,0.00521,,
1.569,0.01188,0.00631,,
1.57,0.00437,0.00718,,
1.571,-0.00227,0.00776,,
1.572,-0.00757,0.00802,,
1.573,-0.01117,0.00794,,
1.574,-0.01276,0.00752,,
1.575,-0.01218,0.00677,,
1.576,-0.00946,0.00573,,
1.577,-0.00474,0.00447,,
1.578,0.00171,0.00306,,
1.579,0.00947,0.0016,,
1.58,0.01807,1.69E-04,,
1.581,0.02693,-0.00112,,
1.582,0.03551,-0.00217,,
1.583,0.04325,-0.0029,,
1.584,0.04963,-0.00324,,
1.585,0.0543,-0.00316,,
1.586,0.05697,-0.00264,,
1.587,0.05754,-0.00171,,
1.588,0.05601,-4.08E-04,,
1.589,0.05249,0.00119,,
1.59,0.0473,0.00299,,
1.591,0.04086,0.00486,,
1.592,0.03361,0.0067,,
1.593,0.02604,0.00838,,
1.594,0.01859,0.00979,,
1.595,0.01174,0.01086,,
1.596,0.00587,0.01152,,
1.597,0.00126,0.01173,,
1.598,-0.00196,0.01152,,
1.599,-0.00377,0.0109,,
1.6,-0.00426,0.00994,,
1.601,-0.00361,0.00874,,
1.602,-0.00211,0.00739,,
1.603,-9.82E-05,0.00601,,
1.604,0.00206,0.00471,,
1.605,0.00404,0.00357,,
1.606,0.00553,0.00268,,
1.607,0.00628,0.00209,,
1.608,0.00614,0.00183,,
1.609,0.00506,0.00189,,
1.61,0.00314,0.00224,,
1.611,5.15E-04,0.00283,,
1.612,-0.00262,0.00358,,
1.613,-0.00599,0.00442,,
1.614,-0.00933,0.00526,,
1.615,-0.01226,0.006,,
1.616,-0.01456,0.00659,,
1.617,-0.01605,0.00697,,
1.618,-0.01663,0.00709,,
1.619,-0.01631,0.00696,,
1.62,-0.01512,0.00659,,
1.621,-0.01324,0.006,,
1.622,-0.01094,0.00525,,
1.623,-0.00853,0.0044,,
1.624,-0.00636,0.00351,,
1.625,-0.00474,0.00267,,
1.626,-0.00397,0.00195,,
1.627,-0.00429,0.00139,,
1.628,-0.00586,0.00103,,
1.629,-0.00875,8.99E-04,,
1.63,-0.01286,0.001,,
1.631,-0.01805,0.00132,,
1.632,-0.02406,0.00182,,
1.633,-0.03056,0.00245,,
1.634,-0.03716,0.00313,,
1.635,-0.04341,0.00381,,
1.636,-0.04894,0.0044,,
1.637,-0.05341,0.00485,,
1.638,-0.05655,0.00508,,
1.639,-0.05816,0.00506,,
1.64,-0.05813,0.00475,,
1.641,-0.05655,0.00416,,
1.642,-0.05358,0.00329,,
1.643,-0.04946,0.00218,,
1.644,-0.04453,8.96E-04,,
1.645,-0.03916,-4.95E-04,,
1.646,-0.0338,-0.00191,,
1.647,-0.02884,-0.00327,,
1.648,-0.02463,-0.00448,,
1.649,-0.02144,-0.00548,,
1.65,-0.01946,-0.00619,,
1.651,-0.01882,-0.00658,,
1.652,-0.01947,-0.00664,,
1.653,-0.02129,-0.00636,,
1.654,-0.02401,-0.00577,,
1.655,-0.02737,-0.00492,,
1.656,-0.03101,-0.0039,,
1.657,-0.03457,-0.00277,,
1.658,-0.03769,-0.00163,,
1.659,-0.04,-5.43E-04,,
1.66,-0.0413,4.03E-04,,
1.661,-0.04141,0.00115,,
1.662,-0.04025,0.00165,,
1.663,-0.03785,0.00189,,
1.664,-0.03425,0.00188,,
1.665,-0.02975,0.00165,,
1.666,-0.02458,0.00123,,
1.667,-0.01904,6.88E-04,,
1.668,-0.01342,8.92E-05,,
1.669,-0.00798,-4.87E-04,,
1.67,-0.00308,-9.84E-04,,
1.671,0.00111,-0.00134,,
1.672,0.00447,-0.00152,,
1.673,0.00694,-0.0015,,
1.674,0.0086,-0.00125,,
1.675,0.00948,-8.12E-04,,
1.676,0.00979,-1.91E-04,,
1.677,0.00973,5.71E-04,,
1.678,0.00956,0.00143,,
1.679,0.00953,0.00234,,
1.68,0.00982,0.00325,,
1.681,0.01066,0.00412,,
1.682,0.01219,0.00492,,
1.683,0.01445,0.00563,,
1.684,0.01745,0.00623,,
1.685,0.02106,0.00672,,
1.686,0.0252,0.00711,,
1.687,0.02971,0.00741,,
1.688,0.03434,0.00763,,
1.689,0.03881,0.0078,,
1.69,0.04287,0.00791,,
1.691,0.04632,0.00799,,
1.692,0.04899,0.00804,,
1.693,0.05073,0.00805,,
1.694,0.05139,0.00804,,
1.695,0.0509,0.00798,,
1.696,0.04932,0.00786,,
1.697,0.04672,0.00769,,
1.698,0.04319,0.00745,,
1.699,0.03887,0.00713,,
1.7,0.03392,0.00675,,
1.701,0.02852,0.00631,,
1.702,0.02287,0.00582,,
1.703,0.01715,0.00531,,
1.704,0.01157,0.00479,,
1.705,0.00626,0.0043,,
1.706,0.00136,0.00386,,
1.707,-0.00301,0.0035,,
1.708,-0.00673,0.00324,,
1.709,-0.00967,0.0031,,
1.71,-0.01179,0.00309,,
1.711,-0.01304,0.00321,,
1.712,-0.01339,0.00346,,
1.713,-0.01282,0.00383,,
1.714,-0.01128,0.00429,,
1.715,-0.00878,0.00483,,
1.716,-0.00542,0.00539,,
1.717,-0.00126,0.00595,,
1.718,0.0036,0.00646,,
1.719,0.00909,0.00688,,
1.72,0.01505,0.00716,,
1.721,0.02125,0.00727,,
1.722,0.02751,0.00718,,
1.723,0.03364,0.00687,,
1.724,0.03946,0.00634,,
1.725,0.04473,0.00558,,
1.726,0.04929,0.00462,,
1.727,0.053,0.0035,,
1.728,0.05576,0.00226,,
1.729,0.05754,9.49E-04,,
1.73,0.05828,-3.62E-04,,
1.731,0.0581,-0.00161,,
1.732,0.05712,-0.00273,,
1.733,0.0555,-0.00367,,
1.734,0.05346,-0.00439,,
1.735,0.05115,-0.00483,,
1.736,0.04886,-0.005,,
1.737,0.04683,-0.0049,,
1.738,0.04527,-0.00454,,
1.739,0.04436,-0.00397,,
1.74,0.0441,-0.00323,,
1.741,0.04457,-0.00239,,
1.742,0.04575,-0.00152,,
1.743,0.04756,-6.86E-04,,
1.744,0.04992,6.10E-05,,
1.745,0.05251,6.69E-04,,
1.746,0.05511,0.0011,,
1.747,0.05749,0.00132,,
1.748,0.05947,0.00134,,
1.749,0.06096,0.00117,,
1.75,0.06178,8.42E-04,,
1.751,0.06195,3.96E-04,,
1.752,0.06153,-1.23E-04,,
1.753,0.06066,-6.64E-04,,
1.754,0.05955,-0.00117,,
1.755,0.0587,-0.0016,,
1.756,0.05855,-0.00191,,
1.757,0.05954,-0.00207,,
1.758,0.06194,-0.00207,,
1.759,0.0657,-0.00192,,
1.76,0.07157,-0.0016,,
1.761,0.07967,-0.00114,,
1.762,0.08998,-5.59E-04,,
1.763,0.102,1.09E-04,,
1.764,0.11445,8.14E-04,,
1.765,0.12735,0.00153,,
1.766,0.13973,0.00222,,
1.767,0.15054,0.00286,,
1.768,0.1583,0.0034,,
1.769,0.16082,0.00379,,
1.77,0.15751,0.00401,,
1.771,0.14705,0.00404,,
1.772,0.12843,0.00384,,
1.773,0.10065,0.0034,,
1.774,0.06266,0.00269,,
1.775,0.01487,0.00172,,
1.776,-0.04253,4.74E-04,,
1.777,-0.10882,-0.00103,,
1.778,-0.1828,-0.00276,,
1.779,-0.26273,-0.00468,,
1.78,-0.3463,-0.00675,,
1.781,-0.43137,-0.00889,,
1.782,-0.51556,-0.01104,,
1.783,-0.59603,-0.01312,,
1.784,-0.66949,-0.01505,,
1.785,-0.73328,-0.01673,,
1.786,-0.7856,-0.0181,,
1.787,-0.82479,-0.01912,,
1.788,-0.84913,-0.01973,,
1.789,-0.85695,-0.01989,,
1.79,-0.84789,-0.0196,,
1.791,-0.82297,-0.01888,,
1.792,-0.78332,-0.01778,,
1.793,-0.73012,-0.01636,,
1.794,-0.66473,-0.01465,,
1.795,-0.58957,-0.01276,,
1.796,-0.50789,-0.01076,,
1.797,-0.42263,-0.00877,,
1.798,-0.33638,-0.00683,,
1.799,-0.2516,-0.00503,,
1.8,-0.17096,-0.00341,,
1.801,-0.09682,-0.00202,,
1.802,-0.0309,-8.81E-04,,
1.803,0.02558,3.22E-06,,
1.804,0.07193,6.47E-04,,
1.805,0.10742,0.00107,,
1.806,0.13268,0.00132,,
1.807,0.14848,0.00143,,
1.808,0.15571,0.00146,,
1.809,0.15566,0.00145,,
1.81,0.14905,0.00143,,
1.811,0.13817,0.00145,,
1.812,0.12469,0.00153,,
1.813,0.10989,0.0017,,
1.814,0.09497,0.00193,,
1.815,0.08014,0.00221,,
1.816,0.06693,0.00253,,
1.817,0.05598,0.00286,,
1.818,0.04744,0.00316,,
1.819,0.04129,0.0034,,
1.82,0.03677,0.00351,,
1.821,0.03398,0.00347,,
1.822,0.03262,0.00327,,
1.823,0.03225,0.00288,,
1.824,0.03239,0.00231,,
1.825,0.03244,0.00155,,
1.826,0.03222,6.41E-04,,
1.827,0.03159,-3.74E-04,,
1.828,0.0305,-0.00145,,
1.829,0.02899,-0.00252,,
1.83,0.02725,-0.00353,,
1.831,0.0254,-0.00442,,
1.832,0.02367,-0.00514,,
1.833,0.02232,-0.00564,,
1.834,0.02161,-0.0059,,
1.835,0.02182,-0.0059,,
1.836,0.02297,-0.00567,,
1.837,0.02506,-0.00523,,
1.838,0.02804,-0.00462,,
1.839,0.03176,-0.00388,,
1.84,0.03605,-0.00308,,
1.841,0.04062,-0.00229,,
1.842,0.04515,-0.00156,,
1.843,0.04934,-9.38E-04,,
1.844,0.05289,-4.35E-04,,
1.845,0.05554,-6.92E-05,,
1.846,0.05714,1.70E-04,,
1.847,0.05759,3.10E-04,,
1.848,0.05687,3.93E-04,,
1.849,0.05501,4.71E-04,,
1.85,0.05218,6.05E-04,,
1.851,0.04861,8.48E-04,,
1.852,0.04455,0.00125,,
1.853,0.04028,0.00183,,
1.854,0.03609,0.0026,,
1.855,0.03227,0.00353,,
1.856,0.0291,0.0046,,
1.857,0.02675,0.00575,,
1.858,0.02536,0.00689,,
1.859,0.02493,0.00794,,
1.86,0.02548,0.0088,,
1.861,0.02691,0.00938,,
1.862,0.02908,0.00963,,
1.863,0.03175,0.0095,,
1.864,0.03461,0.00895,,
1.865,0.03743,0.008,,
1.866,0.0399,0.0067,,
1.867,0.04175,0.00512,,
1.868,0.04276,0.00336,,
1.869,0.04269,0.00153,,
1.87,0.04144,-2.47E-04,,
1.871,0.03894,-0.00184,,
1.872,0.03517,-0.00313,,
1.873,0.03023,-0.00404,,
1.874,0.02429,-0.00449,,
1.875,0.01758,-0.00445,,
1.876,0.01038,-0.00392,,
1.877,0.00298,-0.00295,,
1.878,-0.00428,-0.0016,,
1.879,-0.01101,1.69E-05,,
1.88,-0.01686,0.00179,,
1.881,-0.02152,0.00358,,
1.882,-0.02476,0.00526,,
1.883,-0.02638,0.00669,,
1.884,-0.02624,0.00777,,
1.885,-0.02429,0.00841,,
1.886,-0.02061,0.00856,,
1.887,-0.01538,0.0082,,
1.888,-0.00882,0.00735,,
1.889,-0.00126,0.00604,,
1.89,0.00693,0.00437,,
1.891,0.0153,0.00245,,
1.892,0.02339,3.93E-04,,
1.893,0.03077,-0.00167,,
1.894,0.03702,-0.00361,,
1.895,0.04181,-0.0053,,
1.896,0.04485,-0.00664,,
1.897,0.04598,-0.00757,,
1.898,0.04513,-0.00802,,
1.899,0.04235,-0.00799,,
1.9,0.03783,-0.0075,,
1.901,0.0319,-0.00661,,
1.902,0.02494,-0.00539,,
1.903,0.01736,-0.00396,,
1.904,0.0096,-0.00241,,
1.905,0.0022,-8.66E-04,,
1.906,-0.00437,5.49E-04,,
1.907,-0.00971,0.00174,,
1.908,-0.01355,0.00263,,
1.909,-0.01578,0.00317,,
1.91,-0.0163,0.00334,,
1.911,-0.01521,0.00315,,
1.912,-0.01272,0.00264,,
1.913,-0.00921,0.00188,,
1.914,-0.00515,9.59E-04,,
1.915,-0.00101,-3.06E-05,,
1.916,0.00265,-9.84E-04,,
1.917,0.00534,-0.00181,,
1.918,0.0066,-0.00244,,
1.919,0.00606,-0.00281,,
1.92,0.00356,-0.0029,,
1.921,-0.00104,-0.00271,,
1.922,-0.00764,-0.00226,,
1.923,-0.01602,-0.00162,,
1.924,-0.02576,-8.64E-04,,
1.925,-0.03629,-7.84E-05,,
1.926,-0.04705,6.44E-04,,
1.927,-0.05743,0.00122,,
1.928,-0.06679,0.00158,,
1.929,-0.07452,0.00166,,
1.93,-0.08005,0.00145,,
1.931,-0.08307,9.35E-04,,
1.932,-0.08339,1.58E-04,,
1.933,-0.08098,-8.29E-04,,
1.934,-0.076,-0.00195,,
1.935,-0.06872,-0.0031,,
1.936,-0.05966,-0.0042,,
1.937,-0.04943,-0.00516,,
1.938,-0.03869,-0.00588,,
1.939,-0.02819,-0.00632,,
1.94,-0.01856,-0.00643,,
1.941,-0.01047,-0.00619,,
1.942,-0.0044,-0.00563,,
1.943,-7.62E-04,-0.00478,,
1.944,1.77E-04,-0.00371,,
1.945,-0.00155,-0.0025,,
1.946,-0.00583,-0.00123,,
1.947,-0.01236,-1.07E-06,,
1.948,-0.02075,0.00111,,
1.949,-0.03052,0.00202,,
1.95,-0.04103,0.00266,,
1.951,-0.05166,0.00301,,
1.952,-0.06186,0.00305,,
1.953,-0.07113,0.00277,,
1.954,-0.07909,0.0022,,
1.955,-0.08541,0.00138,,
1.956,-0.08992,3.72E-04,,
1.957,-0.09261,-7.64E-04,,
1.958,-0.09361,-0.00196,,
1.959,-0.09316,-0.00314,,
1.96,-0.09153,-0.00424,,
1.961,-0.08913,-0.00521,,
1.962,-0.08636,-0.00599,,
1.963,-0.0836,-0.00656,,
1.964,-0.08128,-0.00688,,
1.965,-0.07957,-0.00695,,
1.966,-0.07873,-0.00678,,
1.967,-0.0789,-0.00638,,
1.968,-0.08009,-0.00577,,
1.969,-0.08228,-0.005,,
1.97,-0.08517,-0.00411,,
1.971,-0.08864,-0.00314,,
1.972,-0.09243,-0.00214,,
1.973,-0.09632,-0.00116,,
1.974,-0.10012,-2.41E-04,,
1.975,-0.10351,5.74E-04,,
1.976,-0.10641,0.00125,,
1.977,-0.10876,0.00176,,
1.978,-0.11059,0.0021,,
1.979,-0.112,0.00224,,
1.98,-0.11306,0.00219,,
1.981,-0.114,0.00196,,
1.982,-0.11501,0.00156,,
1.983,-0.11633,0.00101,,
1.984,-0.11817,3.37E-04,,
1.985,-0.12061,-4.34E-04,,
1.986,-0.12376,-0.00127,,
1.987,-0.12763,-0.00215,,
1.988,-0.13217,-0.00303,,
1.989,-0.13726,-0.00389,,
1.99,-0.14259,-0.00471,,
1.991,-0.14794,-0.00546,,
1.992,-0.15303,-0.00611,,
1.993,-0.15759,-0.00666,,
1.994,-0.16135,-0.00706,,
1.995,-0.164,-0.00731,,
1.996,-0.16544,-0.0074,,
1.997,-0.16561,-0.00731,,
1.998,-0.16455,-0.00705,,
1.999,-0.1624,-0.00661,,
2.0,-0.15932,-0.006,,
2.001,-0.15566,-0.00524,,
2.002,-0.15178,-0.00435,,
2.003,-0.14805,-0.00338,,
2.004,-0.14488,-0.00236,,
2.005,-0.1426,-0.00133,,
2.006,-0.14155,-3.34E-04,,
2.007,-0.14195,5.71E-04,,
2.008,-0.1439,0.00135,,
2.009,-0.14736,0.00195,,
2.01,-0.15223,0.00237,,
2.011,-0.15828,0.00259,,
2.012,-0.16521,0.00261,,
2.013,-0.17258,0.00245,,
2.014,-0.17985,0.00212,,
2.015,-0.18657,0.00166,,
2.016,-0.19229,0.00112,,
2.017,-0.19659,5.42E-04,,
2.018,-0.19912,-3.02E-05,,
2.019,-0.19953,-5.67E-04,,
2.02,-0.19775,-0.00104,,
2.021,-0.19378,-0.00143,,
2.022,-0.18775,-0.00173,,
2.023,-0.17986,-0.00195,,
2.024,-0.17042,-0.00211,,
2.025,-0.15988,-0.00224,,
2.026,-0.14876,-0.00237,,
2.027,-0.13752,-0.00253,,
2.028,-0.12663,-0.00276,,
2.029,-0.11654,-0.00306,,
2.03,-0.1077,-0.00345,,
2.031,-0.1004,-0.00393,,
2.032,-0.09481,-0.0045,,
2.033,-0.09105,-0.00512,,
2.034,-0.08906,-0.00575,,
2.035,-0.08883,-0.00635,,
2.036,-0.09006,-0.00688,,
2.037,-0.09248,-0.00729,,
2.038,-0.09576,-0.00755,,
2.039,-0.09951,-0.00762,,
2.04,-0.10346,-0.00748,,
2.041,-0.1072,-0.00712,,
2.042,-0.1104,-0.00656,,
2.043,-0.11284,-0.0058,,
2.044,-0.1143,-0.00488,,
2.045,-0.11481,-0.00385,,
2.046,-0.11428,-0.00273,,
2.047,-0.11275,-0.00159,,
2.048,-0.11035,-4.71E-04,,
2.049,-0.10718,5.79E-04,,
2.05,-0.10358,0.00152,,
2.051,-0.09974,0.00232,,
2.052,-0.09586,0.00295,,
2.053,-0.09213,0.00341,,
2.054,-0.08866,0.00366,,
2.055,-0.08568,0.00371,,
2.056,-0.08324,0.00357,,
2.057,-0.08136,0.00326,,
2.058,-0.07998,0.00278,,
2.059,-0.07895,0.00215,,
2.06,-0.07822,0.0014,,
2.061,-0.07761,5.60E-04,,
2.062,-0.07694,-3.42E-04,,
2.063,-0.07601,-0.00128,,
2.064,-0.0746,-0.00222,,
2.065,-0.07263,-0.00314,,
2.066,-0.06998,-0.00401,,
2.067,-0.06655,-0.00481,,
2.068,-0.06234,-0.00552,,
2.069,-0.05735,-0.00612,,
2.07,-0.05177,-0.00661,,
2.071,-0.04569,-0.00698,,
2.072,-0.0393,-0.00724,,
2.073,-0.0328,-0.00739,,
2.074,-0.02638,-0.00744,,
2.075,-0.0204,-0.0074,,
2.076,-0.01504,-0.00729,,
2.077,-0.01046,-0.00712,,
2.078,-0.00682,-0.00691,,
2.079,-0.00417,-0.00665,,
2.08,-0.00269,-0.00634,,
2.081,-0.00229,-0.00599,,
2.082,-0.00287,-0.00561,,
2.083,-0.00429,-0.00518,,
2.084,-0.00627,-0.0047,,
2.085,-0.0087,-0.00418,,
2.086,-0.01124,-0.00361,,
2.087,-0.0136,-0.003,,
2.088,-0.0155,-0.00236,,
2.089,-0.01661,-0.0017,,
2.09,-0.01684,-0.00105,,
2.091,-0.01597,-4.33E-04,,
2.092,-0.01389,1.34E-04,,
2.093,-0.01059,6.25E-04,,
2.094,-0.00608,0.00102,,
2.095,-5.74E-04,0.0013,,
2.096,0.00577,0.00145,,
2.097,0.01271,0.00148,,
2.098,0.01998,0.00139,,
2.099,0.02726,0.0012,,
2.1,0.03419,9.15E-04,,
2.101,0.04052,5.71E-04,,
2.102,0.04599,1.98E-04,,
2.103,0.05042,-1.75E-04,,
2.104,0.05363,-5.15E-04,,
2.105,0.05552,-8.04E-04,,
2.106,0.05612,-0.00102,,
2.107,0.05551,-0.00114,,
2.108,0.05381,-0.00115,,
2.109,0.05119,-0.00106,,
2.11,0.04781,-8.63E-04,,
2.111,0.04394,-5.74E-04,,
2.112,0.03982,-2.02E-04,,
2.113,0.03566,2.39E-04,,
2.114,0.0317,7.29E-04,,
2.115,0.02802,0.00125,,
2.116,0.02479,0.00177,,
2.117,0.02209,0.00228,,
2.118,0.01999,0.00275,,
2.119,0.01855,0.00318,,
2.12,0.01771,0.00353,,
2.121,0.01745,0.00379,,
2.122,0.01776,0.00396,,
2.123,0.01861,0.00401,,
2.124,0.02001,0.00396,,
2.125,0.02193,0.00381,,
2.126,0.02435,0.00356,,
2.127,0.02729,0.00323,,
2.128,0.03073,0.00285,,
2.129,0.03464,0.00245,,
2.13,0.03902,0.00206,,
2.131,0.04379,0.0017,,
2.132,0.04885,0.00143,,
2.133,0.05408,0.00126,,
2.134,0.05924,0.00121,,
2.135,0.06416,0.0013,,
2.136,0.06861,0.00152,,
2.137,0.07234,0.00187,,
2.138,0.07512,0.00231,,
2.139,0.07667,0.00283,,
2.14,0.07681,0.00337,,
2.141,0.07544,0.00389,,
2.142,0.0725,0.00435,,
2.143,0.06801,0.0047,,
2.144,0.06209,0.00493,,
2.145,0.05491,0.00501,,
2.146,0.0468,0.00495,,
2.147,0.0381,0.00475,,
2.148,0.02922,0.00445,,
2.149,0.02063,0.00408,,
2.15,0.01274,0.00371,,
2.151,0.00598,0.00338,,
2.152,7.05E-04,0.00316,,
2.153,-0.0028,0.00308,,
2.154,-0.00432,0.00319,,
2.155,-0.00376,0.00351,,
2.156,-0.00117,0.00403,,
2.157,0.00329,0.00476,,
2.158,0.00939,0.00563,,
2.159,0.01676,0.0066,,
2.16,0.02504,0.0076,,
2.161,0.03374,0.00856,,
2.162,0.04236,0.00939,,
2.163,0.05048,0.01004,,
2.164,0.05761,0.01041,,
2.165,0.06345,0.01047,,
2.166,0.06767,0.0102,,
2.167,0.07011,0.00957,,
2.168,0.07068,0.00862,,
2.169,0.06936,0.00735,,
2.17,0.0663,0.00584,,
2.171,0.06171,0.00415,,
2.172,0.05586,0.00235,,
2.173,0.04907,5.38E-04,,
2.174,0.04174,-0.00122,,
2.175,0.0342,-0.00283,,
2.176,0.02686,-0.00425,,
2.177,0.02007,-0.00541,,
2.178,0.01411,-0.00628,,
2.179,0.00923,-0.00685,,
2.18,0.00562,-0.0071,,
2.181,0.00339,-0.00707,,
2.182,0.00259,-0.00679,,
2.183,0.0032,-0.0063,,
2.184,0.00511,-0.00564,,
2.185,0.0082,-0.00488,,
2.186,0.01225,-0.00407,,
2.187,0.01704,-0.00327,,
2.188,0.02231,-0.00253,,
2.189,0.02776,-0.00186,,
2.19,0.03314,-0.00129,,
2.191,0.03813,-8.38E-04,,
2.192,0.04248,-4.94E-04,,
2.193,0.04596,-2.42E-04,,
2.194,0.04836,-5.07E-05,,
2.195,0.04956,1.16E-04,,
2.196,0.04946,2.95E-04,,
2.197,0.04803,5.21E-04,,
2.198,0.04532,8.27E-04,,
2.199,0.04143,0.00124,,
2.2,0.03656,0.00176,,
2.201,0.03095,0.0024,,
2.202,0.0249,0.00314,,
2.203,0.01871,0.00396,,
2.204,0.0127,0.0048,,
2.205,0.00723,0.00562,,
2.206,0.00261,0.00635,,
2.207,-8.99E-04,0.00696,,
2.208,-0.00311,0.0074,,
2.209,-0.00391,0.00761,,
2.21,-0.00327,0.00757,,
2.211,-0.00127,0.00728,,
2.212,0.00191,0.00675,,
2.213,0.00604,0.006,,
2.214,0.0108,0.00509,,
2.215,0.01583,0.00407,,
2.216,0.02072,0.003,,
2.217,0.02508,0.00196,,
2.218,0.02861,0.00102,,
2.219,0.03103,2.35E-04,,
2.22,0.03217,-3.52E-04,,
2.221,0.03193,-7.09E-04,,
2.222,0.03035,-8.26E-04,,
2.223,0.02758,-7.11E-04,,
2.224,0.02386,-3.87E-04,,
2.225,0.01954,1.08E-04,,
2.226,0.01499,7.26E-04,,
2.227,0.01063,0.00141,,
2.228,0.00683,0.00211,,
2.229,0.00398,0.00278,,
2.23,0.00233,0.00337,,
2.231,0.00207,0.00386,,
2.232,0.00327,0.00423,,
2.233,0.00586,0.00447,,
2.234,0.00969,0.00459,,
2.235,0.01444,0.0046,,
2.236,0.01975,0.00453,,
2.237,0.02522,0.0044,,
2.238,0.03043,0.00422,,
2.239,0.03498,0.004,,
2.24,0.03849,0.00375,,
2.241,0.04073,0.00348,,
2.242,0.04155,0.00317,,
2.243,0.04092,0.00281,,
2.244,0.03895,0.00237,,
2.245,0.03587,0.00186,,
2.246,0.03202,0.00125,,
2.247,0.02777,5.29E-04,,
2.248,0.02356,-2.91E-04,,
2.249,0.0198,-0.0012,,
2.25,0.01689,-0.00218,,
2.251,0.01512,-0.0032,,
2.252,0.01472,-0.00422,,
2.253,0.01573,-0.0052,,
2.254,0.01812,-0.00607,,
2.255,0.02166,-0.0068,,
2.256,0.02607,-0.00735,,
2.257,0.03096,-0.00768,,
2.258,0.03589,-0.00778,,
2.259,0.04041,-0.00763,,
2.26,0.04404,-0.00721,,
2.261,0.04643,-0.00658,,
2.262,0.0473,-0.00574,,
2.263,0.04652,-0.00474,,
2.264,0.04408,-0.00363,,
2.265,0.04012,-0.00244,,
2.266,0.03491,-0.00125,,
2.267,0.02884,-1.06E-04,,
2.268,0.02236,9.47E-04,,
2.269,0.01603,0.00186,,
2.27,0.01036,0.00261,,
2.271,0.00583,0.00316,,
2.272,0.00285,0.0035,,
2.273,0.00169,0.00364,,
2.274,0.00253,0.00357,,
2.275,0.00537,0.00332,,
2.276,0.01006,0.00291,,
2.277,0.01632,0.00239,,
2.278,0.02374,0.00179,,
2.279,0.03182,0.00114,,
2.28,0.04001,4.98E-04,,
2.281,0.04777,-1.05E-04,,
2.282,0.05461,-6.31E-04,,
2.283,0.06008,-0.00106,,
2.284,0.06382,-0.00136,,
2.285,0.06562,-0.00155,,
2.286,0.06543,-0.00163,,
2.287,0.06334,-0.00159,,
2.288,0.05952,-0.00147,,
2.289,0.05426,-0.00129,,
2.29,0.04798,-0.00109,,
2.291,0.0411,-8.85E-04,,
2.292,0.03407,-7.15E-04,,
2.293,0.0273,-5.98E-04,,
2.294,0.02117,-5.44E-04,,
2.295,0.01596,-5.59E-04,,
2.296,0.01186,-6.39E-04,,
2.297,0.00897,-7.73E-04,,
2.298,0.00728,-9.36E-04,,
2.299,0.00673,-0.0011,,
2.3,0.00711,-0.00124,,
2.301,0.00823,-0.00131,,
2.302,0.00985,-0.00131,,
2.303,0.01174,-0.00121,,
2.304,0.01373,-0.001,,
2.305,0.01564,-6.91E-04,,
2.306,0.01736,-2.87E-04,,
2.307,0.01884,1.89E-04,,
2.308,0.0201,7.04E-04,,
2.309,0.02121,0.00122,,
2.31,0.02231,0.00171,,
2.311,0.02346,0.00212,,
2.312,0.02479,0.00243,,
2.313,0.02639,0.00261,,
2.314,0.02833,0.00265,,
2.315,0.03063,0.00253,,
2.316,0.03323,0.00227,,
2.317,0.03604,0.00188,,
2.318,0.03891,0.00137,,
2.319,0.04168,7.94E-04,,
2.32,0.04413,1.66E-04,,
2.321,0.04612,-4.72E-04,,
2.322,0.04747,-0.00109,,
2.323,0.04806,-0.00165,,
2.324,0.0478,-0.00211,,
2.325,0.04668,-0.00247,,
2.326,0.0448,-0.00269,,
2.327,0.04229,-0.00276,,
2.328,0.03932,-0.00268,,
2.329,0.03609,-0.00245,,
2.33,0.03285,-0.00205,,
2.331,0.02985,-0.00151,,
2.332,0.02733,-8.42E-04,,
2.333,0.02544,-5.76E-05,,
2.334,0.02427,8.08E-04,,
2.335,0.02389,0.00173,,
2.336,0.02426,0.00266,,
2.337,0.02527,0.00357,,
2.338,0.02675,0.00441,,
2.339,0.02846,0.00513,,
2.34,0.03017,0.00569,,
2.341,0.03158,0.00606,,
2.342,0.03247,0.0062,,
2.343,0.03261,0.00609,,
2.344,0.03187,0.00573,,
2.345,0.03017,0.00512,,
2.346,0.02753,0.00429,,
2.347,0.02403,0.00328,,
2.348,0.01984,0.00213,,
2.349,0.01521,9.02E-04,,
2.35,0.01047,-3.40E-04,,
2.351,0.00595,-0.00153,,
2.352,0.00195,-0.00261,,
2.353,-0.00122,-0.00352,,
2.354,-0.00333,-0.00425,,
2.355,-0.00414,-0.00475,,
2.356,-0.00357,-0.00504,,
2.357,-0.00163,-0.00512,,
2.358,0.00156,-0.00503,,
2.359,0.00575,-0.0048,,
2.36,0.01071,-0.00449,,
2.361,0.01605,-0.00415,,
2.362,0.02138,-0.00384,,
2.363,0.02626,-0.00361,,
2.364,0.03021,-0.00349,,
2.365,0.03292,-0.00349,,
2.366,0.03407,-0.00362,,
2.367,0.03345,-0.00389,,
2.368,0.03092,-0.00426,,
2.369,0.02646,-0.00469,,
2.37,0.02024,-0.00513,,
2.371,0.01247,-0.00552,,
2.372,0.00348,-0.00583,,
2.373,-0.00633,-0.00601,,
2.374,-0.01653,-0.00601,,
2.375,-0.02658,-0.00581,,
2.376,-0.03601,-0.0054,,
2.377,-0.04441,-0.0048,,
2.378,-0.0514,-0.00403,,
2.379,-0.05669,-0.00311,,
2.38,-0.06004,-0.00212,,
2.381,-0.06143,-0.0011,,
2.382,-0.06092,-1.18E-04,,
2.383,-0.05864,7.64E-04,,
2.384,-0.05486,0.00149,,
2.385,-0.04988,0.002,,
2.386,-0.04414,0.00227,,
2.387,-0.0381,0.00228,,
2.388,-0.03215,0.00202,,
2.389,-0.0267,0.00151,,
2.39,-0.02205,7.85E-04,,
2.391,-0.01856,-1.14E-04,,
2.392,-0.0164,-0.00112,,
2.393,-0.01565,-0.00217,,
2.394,-0.01626,-0.00318,,
2.395,-0.01811,-0.00408,,
2.396,-0.02101,-0.00481,,
2.397,-0.02469,-0.0053,,
2.398,-0.02882,-0.00552,,
2.399,-0.03298,-0.00544,,
2.4,-0.03686,-0.00506,,
2.401,-0.04011,-0.00441,,
2.402,-0.04244,-0.00353,,
2.403,-0.04364,-0.00246,,
2.404,-0.04349,-0.0013,,
2.405,-0.04203,-1.25E-04,,
2.406,-0.03926,9.79E-04,,
2.407,-0.03531,0.00193,,
2.408,-0.03035,0.00266,,
2.409,-0.02458,0.0031,,
2.41,-0.01838,0.00322,,
2.411,-0.01202,0.00302,,
2.412,-0.0058,0.00251,,
2.413,3.19E-05,0.00173,,
2.414,0.00529,7.24E-04,,
2.415,0.00974,-4.16E-04,,
2.416,0.01331,-0.00161,,
2.417,0.01598,-0.00277,,
2.418,0.01782,-0.00381,,
2.419,0.01895,-0.00466,,
2.42,0.01947,-0.00526,,
2.421,0.0196,-0.0056,,
2.422,0.01954,-0.00564,,
2.423,0.01951,-0.00542,,
2.424,0.01971,-0.00496,,
2.425,0.0202,-0.00432,,
2.426,0.02113,-0.00356,,
2.427,0.02254,-0.00275,,
2.428,0.02443,-0.00196,,
2.429,0.02677,-0.00125,,
2.43,0.02936,-6.60E-04,,
2.431,0.03215,-2.29E-04,,
2.432,0.03498,3.44E-05,,
2.433,0.03773,1.36E-04,,
2.434,0.04028,9.68E-05,,
2.435,0.04246,-4.36E-05,,
2.436,0.04427,-2.44E-04,,
2.437,0.04569,-4.58E-04,,
2.438,0.04676,-6.42E-04,,
2.439,0.04751,-7.61E-04,,
2.44,0.04802,-7.88E-04,,
2.441,0.04844,-7.11E-04,,
2.442,0.04888,-5.34E-04,,
2.443,0.04945,-2.73E-04,,
2.444,0.05019,4.50E-05,,
2.445,0.05115,3.76E-04,,
2.446,0.05235,6.81E-04,,
2.447,0.05374,9.22E-04,,
2.448,0.05524,0.00106,,
2.449,0.05669,0.00108,,
2.45,0.05793,9.40E-04,,
2.451,0.05881,6.54E-04,,
2.452,0.05918,2.29E-04,,
2.453,0.05889,-3.08E-04,,
2.454,0.05784,-9.14E-04,,
2.455,0.05595,-0.00155,,
2.456,0.05326,-0.00217,,
2.457,0.04983,-0.00271,,
2.458,0.0458,-0.00313,,
2.459,0.04137,-0.00337,,
2.46,0.03676,-0.00341,,
2.461,0.03223,-0.00322,,
2.462,0.02804,-0.0028,,
2.463,0.02442,-0.00215,,
2.464,0.02163,-0.00129,,
2.465,0.01983,-2.58E-04,,
2.466,0.01911,9.01E-04,,
2.467,0.0195,0.00213,,
2.468,0.02096,0.00338,,
2.469,0.0234,0.00457,,
2.47,0.02668,0.00564,,
2.471,0.03055,0.00655,,
2.472,0.03478,0.00724,,
2.473,0.03912,0.00769,,
2.474,0.04335,0.00786,,
2.475,0.04723,0.00775,,
2.476,0.05056,0.00737,,
2.477,0.05321,0.00676,,
2.478,0.05512,0.00596,,
2.479,0.05628,0.005,,
2.48,0.05665,0.00396,,
2.481,0.05629,0.00289,,
2.482,0.05527,0.00186,,
2.483,0.05373,9.17E-04,,
2.484,0.0519,1.23E-04,,
2.485,0.0498,-5.01E-04,,
2.486,0.04757,-9.29E-04,,
2.487,0.04532,-0.00116,,
2.488,0.0432,-0.00119,,
2.489,0.04141,-0.00105,,
2.49,0.04004,-7.53E-04,,
2.491,0.03928,-3.52E-04,,
2.492,0.03927,1.20E-04,,
2.493,0.04013,6.31E-04,,
2.494,0.04193,0.00115,,
2.495,0.04505,0.00166,,
2.496,0.04972,0.00216,,
2.497,0.05611,0.00263,,
2.498,0.06415,0.00309,,
2.499,0.07339,0.00354,,
2.5,0.08426,0.00402,,
2.501,0.09656,0.00453,,
2.502,0.10997,0.0051,,
2.503,0.12374,0.00572,,
2.504,0.13634,0.00636,,
2.505,0.14766,0.00702,,
2.506,0.15663,0.00767,,
2.507,0.1622,0.00826,,
2.508,0.16302,0.00872,,
2.509,0.15713,0.00898,,
2.51,0.14412,0.00898,,
2.511,0.123,0.00867,,
2.512,0.09312,0.008,,
2.513,0.05397,0.00693,,
2.514,0.00516,0.00546,,
2.515,-0.05251,0.00358,,
2.516,-0.11831,0.00135,,
2.517,-0.19107,-0.00119,,
2.518,-0.2691,-0.00396,,
2.519,-0.3501,-0.00686,,
2.52,-0.43156,-0.00978,,
2.521,-0.51119,-0.0126,,
2.522,-0.58657,-0.01523,,
2.523,-0.65493,-0.01756,,
2.524,-0.71317,-0.01948,,
2.525,-0.75904,-0.02091,,
2.526,-0.79131,-0.0218,,
2.527,-0.80896,-0.02214,,
2.528,-0.811,-0.02192,,
2.529,-0.79662,-0.02114,,
2.53,-0.76628,-0.01983,,
2.531,-0.72178,-0.01809,,
2.532,-0.66498,-0.016,,
2.533,-0.59771,-0.01365,,
2.534,-0.52199,-0.01114,,
2.535,-0.44059,-0.00858,,
2.536,-0.35685,-0.00609,,
2.537,-0.27362,-0.00378,,
2.538,-0.19337,-0.00173,,
2.539,-0.11829,4.93E-06,,
2.54,-0.05058,0.00135,,
2.541,0.00821,0.00227,,
2.542,0.0571,0.00278,,
2.543,0.09558,0.00288,,
2.544,0.12367,0.00265,,
2.545,0.14131,0.00213,,
2.546,0.14986,0.00141,,
2.547,0.15061,6.08E-04,,
2.548,0.14485,-1.84E-04,,
2.549,0.13415,-8.48E-04,,
2.55,0.11932,-0.00131,,
2.551,0.10262,-0.00148,,
2.552,0.08559,-0.00129,,
2.553,0.06929,-6.98E-04,,
2.554,0.05469,2.97E-04,,
2.555,0.04172,0.00165,,
2.556,0.03145,0.00332,,
2.557,0.02417,0.00525,,
2.558,0.01979,0.00732,,
2.559,0.01807,0.00944,,
2.56,0.01818,0.01147,,
2.561,0.01997,0.01331,,
2.562,0.02307,0.01487,,
2.563,0.02701,0.01606,,
2.564,0.03136,0.01681,,
2.565,0.03567,0.01708,,
2.566,0.0397,0.0169,,
2.567,0.04333,0.01627,,
2.568,0.04652,0.01525,,
2.569,0.04926,0.01391,,
2.57,0.05169,0.01233,,
2.571,0.05383,0.01063,,
2.572,0.05576,0.0089,,
2.573,0.05758,0.00724,,
2.574,0.05935,0.00572,,
2.575,0.06115,0.00442,,
2.576,0.0629,0.00339,,
2.577,0.0645,0.00267,,
2.578,0.06584,0.00224,,
2.579,0.06677,0.00209,,
2.58,0.06714,0.00218,,
2.581,0.06686,0.00245,,
2.582,0.06584,0.00285,,
2.583,0.06401,0.0033,,
2.584,0.0614,0.00373,,
2.585,0.05808,0.00408,,
2.586,0.05425,0.00427,,
2.587,0.05013,0.00427,,
2.588,0.04597,0.00404,,
2.589,0.04203,0.0036,,
2.59,0.03863,0.00294,,
2.591,0.03603,0.00211,,
2.592,0.03444,0.00114,,
2.593,0.03401,9.05E-05,,
2.594,0.03475,-9.53E-04,,
2.595,0.03667,-0.00191,,
2.596,0.03961,-0.0027,,
2.597,0.04335,-0.00327,,
2.598,0.04757,-0.00356,,
2.599,0.05188,-0.00353,,
2.6,0.05594,-0.00315,,
2.601,0.05933,-0.00245,,
2.602,0.06171,-0.00144,,
2.603,0.06277,-1.87E-04,,
2.604,0.06231,0.00124,,
2.605,0.06023,0.00275,,
2.606,0.05656,0.00425,,
2.607,0.05142,0.00564,,
2.608,0.04505,0.00683,,
2.609,0.03779,0.00773,,
2.61,0.03009,0.00829,,
2.611,0.02239,0.00848,,
2.612,0.01515,0.00828,,
2.613,0.0088,0.00771,,
2.614,0.00373,0.0068,,
2.615,2.77E-04,0.00564,,
2.616,-0.00139,0.00429,,
2.617,-0.00119,0.00284,,
2.618,8.04E-04,0.0014,,
2.619,0.00444,2.64E-05,,
2.62,0.00945,-0.00119,,
2.621,0.01544,-0.00221,,
2.622,0.02198,-0.00299,,
2.623,0.02863,-0.00353,,
2.624,0.0349,-0.00383,,
2.625,0.0404,-0.00393,,
2.626,0.04474,-0.00387,,
2.627,0.04765,-0.0037,,
2.628,0.04896,-0.00348,,
2.629,0.0486,-0.00324,,
2.63,0.04665,-0.00303,,
2.631,0.04328,-0.00287,,
2.632,0.03873,-0.00278,,
2.633,0.03333,-0.00274,,
2.634,0.02744,-0.00273,,
2.635,0.02149,-0.00271,,
2.636,0.01588,-0.00264,,
2.637,0.01095,-0.00248,,
2.638,0.00698,-0.00219,,
2.639,0.00416,-0.00175,,
2.64,0.00265,-0.00113,,
2.641,0.00248,-3.44E-04,,
2.642,0.00357,5.86E-04,,
2.643,0.00575,0.00162,,
2.644,0.00875,0.00271,,
2.645,0.0123,0.00378,,
2.646,0.01608,0.00477,,
2.647,0.01973,0.00562,,
2.648,0.02294,0.00625,,
2.649,0.02535,0.00661,,
2.65,0.02679,0.00665,,
2.651,0.02705,0.00638,,
2.652,0.02605,0.0058,,
2.653,0.02377,0.00492,,
2.654,0.02024,0.00379,,
2.655,0.01568,0.00247,,
2.656,0.0103,0.00104,,
2.657,0.00432,-4.12E-04,,
2.658,-0.00197,-0.00182,,
2.659,-0.00829,-0.0031,,
2.66,-0.01431,-0.00419,,
2.661,-0.01976,-0.00503,,
2.662,-0.02446,-0.00558,,
2.663,-0.02826,-0.00582,,
2.664,-0.03109,-0.00578,,
2.665,-0.03287,-0.00546,,
2.666,-0.03367,-0.00491,,
2.667,-0.03361,-0.00419,,
2.668,-0.03283,-0.00338,,
2.669,-0.03157,-0.00254,,
2.67,-0.02998,-0.00174,,
2.671,-0.02832,-0.00107,,
2.672,-0.02681,-5.78E-04,,
2.673,-0.02565,-3.16E-04,,
2.674,-0.02502,-3.10E-04,,
2.675,-0.02496,-5.63E-04,,
2.676,-0.02557,-0.00107,,
2.677,-0.02687,-0.00179,,
2.678,-0.02884,-0.00269,,
2.679,-0.03141,-0.0037,,
2.68,-0.03438,-0.00475,,
2.681,-0.03763,-0.00576,,
2.682,-0.04101,-0.00666,,
2.683,-0.04437,-0.0074,,
2.684,-0.0476,-0.00792,,
2.685,-0.05047,-0.00818,,
2.686,-0.0529,-0.00818,,
2.687,-0.05485,-0.00792,,
2.688,-0.05629,-0.00742,,
2.689,-0.05729,-0.00673,,
2.69,-0.05783,-0.00588,,
2.691,-0.05803,-0.00496,,
2.692,-0.05801,-0.00401,,
2.693,-0.05791,-0.00309,,
2.694,-0.05795,-0.00226,,
2.695,-0.0582,-0.00155,,
2.696,-0.05881,-0.001,,
2.697,-0.05991,-6.12E-04,,
2.698,-0.0616,-3.82E-04,,
2.699,-0.06398,-2.96E-04,,
2.7,-0.06695,-3.31E-04,,
2.701,-0.07055,-4.53E-04,,
2.702,-0.0747,-6.32E-04,,
2.703,-0.07932,-8.35E-04,,
2.704,-0.08429,-0.00103,,
2.705,-0.08937,-0.00121,,
2.706,-0.09444,-0.00136,,
2.707,-0.09933,-0.00147,,
2.708,-0.10389,-0.00155,,
2.709,-0.108,-0.0016,,
2.71,-0.11145,-0.00165,,
2.711,-0.11419,-0.00169,,
2.712,-0.11619,-0.00175,,
2.713,-0.11745,-0.00182,,
2.714,-0.11803,-0.0019,,
2.715,-0.11791,-0.00199,,
2.716,-0.11726,-0.00207,,
2.717,-0.11621,-0.00213,,
2.718,-0.11493,-0.00216,,
2.719,-0.11361,-0.00212,,
2.72,-0.11235,-0.00203,,
2.721,-0.11135,-0.00186,,
2.722,-0.11076,-0.00163,,
2.723,-0.1107,-0.00134,,
2.724,-0.11129,-0.00101,,
2.725,-0.11251,-6.57E-04,,
2.726,-0.11441,-3.20E-04,,
2.727,-0.11699,-2.25E-05,,
2.728,-0.12017,2.10E-04,,
2.729,-0.12389,3.60E-04,,
2.73,-0.12797,4.12E-04,,
2.731,-0.13231,3.66E-04,,
2.732,-0.13675,2.28E-04,,
2.733,-0.14115,1.59E-05,,
2.734,-0.14536,-2.44E-04,,
2.735,-0.14918,-5.21E-04,,
2.736,-0.15253,-7.79E-04,,
2.737,-0.1553,-9.83E-04,,
2.738,-0.15742,-0.00111,,
2.739,-0.15883,-0.00113,,
2.74,-0.15947,-0.00103,,
2.741,-0.1594,-8.04E-04,,
2.742,-0.15866,-4.65E-04,,
2.743,-0.15731,-3.00E-05,,
2.744,-0.15545,4.71E-04,,
2.745,-0.15315,0.00101,,
2.746,-0.15058,0.00154,,
2.747,-0.14786,0.00204,,
2.748,-0.14513,0.00246,,
2.749,-0.14254,0.00277,,
2.75,-0.14016,0.00295,,
2.751,-0.13813,0.00298,,
2.752,-0.13655,0.00285,,
2.753,-0.13547,0.00257,,
2.754,-0.13493,0.00213,,
2.755,-0.13496,0.00156,,
2.756,-0.13554,8.80E-04,,
2.757,-0.13666,1.20E-04,,
2.758,-0.13824,-6.96E-04,,
2.759,-0.1402,-0.00154,,
2.76,-0.14247,-0.00237,,
2.761,-0.14496,-0.00317,,
2.762,-0.14755,-0.0039,,
2.763,-0.15013,-0.00454,,
2.764,-0.15253,-0.00509,,
2.765,-0.15469,-0.00552,,
2.766,-0.15651,-0.00583,,
2.767,-0.15788,-0.00603,,
2.768,-0.15871,-0.00612,,
2.769,-0.15886,-0.00613,,
2.77,-0.15835,-0.00607,,
2.771,-0.15713,-0.00597,,
2.772,-0.15519,-0.00587,,
2.773,-0.15253,-0.00581,,
2.774,-0.14911,-0.0058,,
2.775,-0.14507,-0.00587,,
2.776,-0.1405,-0.00605,,
2.777,-0.13549,-0.00635,,
2.778,-0.13015,-0.00677,,
2.779,-0.12458,-0.00731,,
2.78,-0.11902,-0.00793,,
2.781,-0.1136,-0.00862,,
2.782,-0.10849,-0.00933,,
2.783,-0.10381,-0.01004,,
2.784,-0.0996,-0.01068,,
2.785,-0.09608,-0.01121,,
2.786,-0.09326,-0.01159,,
2.787,-0.09115,-0.01181,,
2.788,-0.08969,-0.01182,,
2.789,-0.08874,-0.01162,,
2.79,-0.08833,-0.0112,,
2.791,-0.08823,-0.01059,,
2.792,-0.08827,-0.00981,,
2.793,-0.08823,-0.00889,,
2.794,-0.08787,-0.00787,,
2.795,-0.08714,-0.00679,,
2.796,-0.08583,-0.0057,,
2.797,-0.08381,-0.00464,,
2.798,-0.08099,-0.00366,,
2.799,-0.07729,-0.00277,,
2.8,-0.07289,-0.00202,,
2.801,-0.06781,-0.00141,,
2.802,-0.06218,-9.48E-04,,
2.803,-0.05613,-6.34E-04,,
2.804,-0.04981,-4.55E-04,,
2.805,-0.04355,-4.03E-04,,
2.806,-0.0375,-4.51E-04,,
2.807,-0.03181,-5.71E-04,,
2.808,-0.02662,-7.37E-04,,
2.809,-0.02197,-9.21E-04,,
2.81,-0.01805,-0.00111,,
2.811,-0.0148,-0.00126,,
2.812,-0.01215,-0.00135,,
2.813,-0.00999,-0.00138,,
2.814,-0.00817,-0.00132,,
2.815,-0.00664,-0.00119,,
2.816,-0.00519,-9.90E-04,,
2.817,-0.00363,-7.19E-04,,
2.818,-0.00183,-4.00E-04,,
2.819,3.29E-04,-5.21E-05,,
2.82,0.0028,2.86E-04,,
2.821,0.00567,5.89E-04,,
2.822,0.0089,8.32E-04,,
2.823,0.01243,9.89E-04,,
2.824,0.01616,0.00105,,
2.825,0.01983,9.86E-04,,
2.826,0.02334,8.13E-04,,
2.827,0.02655,5.39E-04,,
2.828,0.02931,1.86E-04,,
2.829,0.03153,-2.13E-04,,
2.83,0.03304,-6.18E-04,,
2.831,0.03387,-9.83E-04,,
2.832,0.03407,-0.00127,,
2.833,0.0337,-0.00143,,
2.834,0.0329,-0.00143,,
2.835,0.03177,-0.00126,,
2.836,0.03055,-9.12E-04,,
2.837,0.02944,-3.90E-04,,
2.838,0.02862,2.75E-04,,
2.839,0.02824,0.00104,,
2.84,0.02841,0.00185,,
2.841,0.02923,0.00265,,
2.842,0.03072,0.00338,,
2.843,0.03284,0.00397,,
2.844,0.03547,0.00438,,
2.845,0.03842,0.00456,,
2.846,0.04153,0.00449,,
2.847,0.04457,0.00418,,
2.848,0.0473,0.00363,,
2.849,0.04951,0.00289,,
2.85,0.05096,0.00199,,
2.851,0.05151,9.94E-04,,
2.852,0.05109,-2.89E-05,,
2.853,0.04966,-0.00102,,
2.854,0.04729,-0.00193,,
2.855,0.04408,-0.00271,,
2.856,0.04021,-0.00332,,
2.857,0.03592,-0.00375,,
2.858,0.03149,-0.004,,
2.859,0.02724,-0.00409,,
2.86,0.02344,-0.00403,,
2.861,0.02037,-0.00387,,
2.862,0.01824,-0.00365,,
2.863,0.01724,-0.00339,,
2.864,0.01748,-0.00315,,
2.865,0.01898,-0.00293,,
2.866,0.02169,-0.00277,,
2.867,0.02546,-0.00267,,
2.868,0.03012,-0.00263,,
2.869,0.03544,-0.00263,,
2.87,0.04111,-0.00266,,
2.871,0.04682,-0.00269,,
2.872,0.0523,-0.00271,,
2.873,0.05726,-0.00269,,
2.874,0.06147,-0.00261,,
2.875,0.06473,-0.00248,,
2.876,0.06694,-0.00228,,
2.877,0.06803,-0.00202,,
2.878,0.06803,-0.00172,,
2.879,0.06701,-0.0014,,
2.88,0.06511,-0.00107,,
2.881,0.06255,-7.71E-04,,
2.882,0.05955,-5.16E-04,,
2.883,0.05634,-3.29E-04,,
2.884,0.05314,-2.27E-04,,
2.885,0.05018,-2.21E-04,,
2.886,0.04767,-3.11E-04,,
2.887,0.04576,-4.92E-04,,
2.888,0.04453,-7.56E-04,,
2.889,0.044,-0.00109,,
2.89,0.04413,-0.00147,,
2.891,0.04487,-0.00187,,
2.892,0.04608,-0.00228,,
2.893,0.0476,-0.00266,,
2.894,0.04919,-0.003,,
2.895,0.05066,-0.00328,,
2.896,0.0518,-0.0035,,
2.897,0.05244,-0.00364,,
2.898,0.05241,-0.0037,,
2.899,0.0516,-0.0037,,
2.9,0.04998,-0.00364,,
2.901,0.04755,-0.00354,,
2.902,0.04437,-0.00341,,
2.903,0.04058,-0.00329,,
2.904,0.03632,-0.00318,,
2.905,0.03186,-0.0031,,
2.906,0.0274,-0.00307,,
2.907,0.02317,-0.00309,,
2.908,0.0194,-0.00316,,
2.909,0.01629,-0.00328,,
2.91,0.01401,-0.00342,,
2.911,0.01264,-0.00357,,
2.912,0.01221,-0.00369,,
2.913,0.0127,-0.00377,,
2.914,0.01401,-0.00378,,
2.915,0.01603,-0.0037,,
2.916,0.01851,-0.00351,,
2.917,0.02125,-0.00321,,
2.918,0.02402,-0.0028,,
2.919,0.02659,-0.00231,,
2.92,0.02878,-0.00177,,
2.921,0.03041,-0.00121,,
2.922,0.03136,-6.83E-04,,
2.923,0.0316,-2.37E-04,,
2.924,0.03115,8.66E-05,,
2.925,0.03011,2.41E-04,,
2.926,0.0286,2.01E-04,,
2.927,0.02679,-4.52E-05,,
2.928,0.02489,-4.94E-04,,
2.929,0.02312,-0.00112,,
2.93,0.02169,-0.00187,,
2.931,0.02076,-0.00271,,
2.932,0.02047,-0.00356,,
2.933,0.02088,-0.00434,,
2.934,0.022,-0.00499,,
2.935,0.02377,-0.00542,,
2.936,0.02609,-0.0056,,
2.937,0.0288,-0.00549,,
2.938,0.03169,-0.00506,,
2.939,0.03454,-0.00434,,
2.94,0.03712,-0.00335,,
2.941,0.03925,-0.00215,,
2.942,0.04077,-8.09E-04,,
2.943,0.04156,5.88E-04,,
2.944,0.04153,0.00195,,
2.945,0.04071,0.0032,,
2.946,0.03915,0.00424,,
2.947,0.03699,0.00501,,
2.948,0.03438,0.00548,,
2.949,0.03149,0.00563,,
2.95,0.02854,0.00544,,
2.951,0.0257,0.00495,,
2.952,0.02316,0.0042,,
2.953,0.02103,0.00325,,
2.954,0.01944,0.00219,,
2.955,0.0184,0.00108,,
2.956,0.01789,1.40E-05,,
2.957,0.01784,-9.39E-04,,
2.958,0.01817,-0.00171,,
2.959,0.01879,-0.00224,,
2.96,0.01953,-0.00249,,
2.961,0.02027,-0.00245,,
2.962,0.02091,-0.00211,,
2.963,0.02138,-0.00148,,
2.964,0.02168,-5.90E-04,,
2.965,0.02181,5.10E-04,,
2.966,0.02183,0.00177,,
2.967,0.02184,0.00314,,
2.968,0.02196,0.00456,,
2.969,0.02234,0.00594,,
2.97,0.02314,0.00723,,
2.971,0.02445,0.00838,,
2.972,0.02636,0.00934,,
2.973,0.02891,0.01007,,
2.974,0.03206,0.01051,,
2.975,0.03575,0.01066,,
2.976,0.03983,0.01052,,
2.977,0.04412,0.01008,,
2.978,0.0484,0.00936,,
2.979,0.05237,0.00839,,
2.98,0.05579,0.0072,,
2.981,0.05844,0.00585,,
2.982,0.06014,0.00437,,
2.983,0.06073,0.00283,,
2.984,0.0601,0.00128,,
2.985,0.05825,-2.23E-04,,
2.986,0.05529,-0.00163,,
2.987,0.05138,-0.00291,,
2.988,0.04671,-0.00401,,
2.989,0.04152,-0.0049,,
2.99,0.03609,-0.00556,,
2.991,0.03074,-0.00599,,
2.992,0.02571,-0.00617,,
2.993,0.02125,-0.0061,,
2.994,0.01752,-0.00581,,
2.995,0.01465,-0.00528,,
2.996,0.01265,-0.00455,,
2.997,0.0115,-0.00366,,
2.998,0.0111,-0.00263,,
2.999,0.01134,-0.00149,,
3.0,0.01202,-2.77E-04,,
3.001,0.01293,9.52E-04,,
3.002,0.01386,0.00215,,
3.003,0.01466,0.00327,,
3.004,0.01525,0.00427,,
3.005,0.01555,0.0051,,
3.006,0.01553,0.00572,,
3.007,0.01522,0.0061,,
3.008,0.01473,0.00622,,
3.009,0.01424,0.00608,,
3.01,0.01395,0.0057,,
3.011,0.01399,0.00509,,
3.012,0.01453,0.00431,,
3.013,0.01573,0.00341,,
3.014,0.01768,0.00248,,
3.015,0.02041,0.00158,,
3.016,0.02389,7.87E-04,,
3.017,0.028,1.89E-04,,
3.018,0.03259,-1.55E-04,,
3.019,0.03745,-1.90E-04,,
3.02,0.04229,1.00E-04,,
3.021,0.04686,7.27E-04,,
3.022,0.0509,0.00167,,
3.023,0.05419,0.00289,,
3.024,0.05652,0.00433,,
3.025,0.05772,0.0059,,
3.026,0.05777,0.00752,,
3.027,0.0567,0.00908,,
3.028,0.0546,0.0105,,
3.029,0.05163,0.01171,,
3.03,0.04798,0.01263,,
3.031,0.04396,0.01323,,
3.032,0.03984,0.01347,,
3.033,0.03591,0.01338,,
3.034,0.03243,0.01297,,
3.035,0.02961,0.01228,,
3.036,0.02764,0.0114,,
3.037,0.02662,0.01039,,
3.038,0.02658,0.00933,,
3.039,0.02749,0.0083,,
3.04,0.02923,0.00736,,
3.041,0.03164,0.0066,,
3.042,0.03452,0.00604,,
3.043,0.03764,0.00573,,
3.044,0.04076,0.00565,,
3.045,0.04366,0.0058,,
3.046,0.04612,0.00616,,
3.047,0.04798,0.00668,,
3.048,0.04914,0.00732,,
3.049,0.04954,0.008,,
3.05,0.04919,0.00868,,
3.051,0.04817,0.00929,,
3.052,0.04658,0.00978,,
3.053,0.04457,0.0101,,
3.054,0.04232,0.01022,,
3.055,0.04004,0.01012,,
3.056,0.03794,0.0098,,
3.057,0.03618,0.00926,,
3.058,0.03489,0.00852,,
3.059,0.03414,0.00762,,
3.06,0.03402,0.00662,,
3.061,0.03451,0.00557,,
3.062,0.03556,0.00451,,
3.063,0.03706,0.00352,,
3.064,0.03881,0.00264,,
3.065,0.04066,0.00194,,
3.066,0.0424,0.00144,,
3.067,0.04384,0.00118,,
3.068,0.04478,0.00116,,
3.069,0.04502,0.00138,,
3.07,0.04448,0.00182,,
3.071,0.04305,0.00244,,
3.072,0.04073,0.0032,,
3.073,0.03754,0.00405,,
3.074,0.03357,0.00491,,
3.075,0.029,0.00573,,
3.076,0.02399,0.00646,,
3.077,0.01877,0.00704,,
3.078,0.01358,0.00745,,
3.079,0.00865,0.00765,,
3.08,0.00426,0.00765,,
3.081,5.85E-04,0.00745,,
3.082,-0.00222,0.00708,,
3.083,-0.00404,0.00658,,
3.084,-0.00482,0.00599,,
3.085,-0.00451,0.00536,,
3.086,-0.00323,0.00475,,
3.087,-0.00109,0.00422,,
3.088,0.00174,0.00378,,
3.089,0.00507,0.00349,,
3.09,0.0087,0.00336,,
3.091,0.01238,0.00341,,
3.092,0.01589,0.00363,,
3.093,0.01903,0.004,,
3.094,0.0216,0.00449,,
3.095,0.02353,0.00508,,
3.096,0.02473,0.00572,,
3.097,0.02518,0.00637,,
3.098,0.02487,0.00699,,
3.099,0.02383,0.00754,,
3.1,0.0222,0.00796,,
3.101,0.02011,0.00823,,
3.102,0.01769,0.00832,,
3.103,0.01506,0.00821,,
3.104,0.01227,0.00788,,
3.105,0.00949,0.00732,,
3.106,0.00677,0.00656,,
3.107,0.00415,0.00559,,
3.108,0.00163,0.00445,,
3.109,-8.45E-04,0.00318,,
3.11,-0.0033,0.00182,,
3.111,-0.00581,4.37E-04,,
3.112,-0.00845,-9.11E-04,,
3.113,-0.01128,-0.00216,,
3.114,-0.01434,-0.00324,,
3.115,-0.01762,-0.00408,,
3.116,-0.02114,-0.00463,,
3.117,-0.02483,-0.00486,,
3.118,-0.0286,-0.00472,,
3.119,-0.03229,-0.00423,,
3.12,-0.03571,-0.00339,,
3.121,-0.03871,-0.00223,,
3.122,-0.04113,-8.27E-04,,
3.123,-0.04279,7.61E-04,,
3.124,-0.04353,0.00243,,
3.125,-0.04322,0.0041,,
3.126,-0.04186,0.00567,,
3.127,-0.03949,0.00704,,
3.128,-0.03617,0.00813,,
3.129,-0.03204,0.00886,,
3.13,-0.02729,0.00921,,
3.131,-0.02223,0.00914,,
3.132,-0.01713,0.00866,,
3.133,-0.01227,0.00779,,
3.134,-0.00788,0.00659,,
3.135,-0.00424,0.00512,,
3.136,-0.00155,0.00346,,
3.137,6.21E-05,0.00171,,
3.138,5.84E-04,-6.08E-05,,
3.139,1.17E-04,-0.00176,,
3.14,-0.00129,-0.0033,,
3.141,-0.00339,-0.00464,,
3.142,-0.00593,-0.00572,,
3.143,-0.00859,-0.00652,,
3.144,-0.01096,-0.00702,,
3.145,-0.0128,-0.00722,,
3.146,-0.01379,-0.00717,,
3.147,-0.01368,-0.00688,,
3.148,-0.01228,-0.00639,,
3.149,-0.00944,-0.00576,,
3.15,-0.00528,-0.00503,,
3.151,1.43E-04,-0.00426,,
3.152,0.00665,-0.0035,,
3.153,0.01399,-0.00278,,
3.154,0.02189,-0.00215,,
3.155,0.02991,-0.00162,,
3.156,0.03772,-0.00122,,
3.157,0.04502,-9.62E-04,,
3.158,0.0515,-8.46E-04,,
3.159,0.05695,-8.56E-04,,
3.16,0.06115,-9.73E-04,,
3.161,0.06407,-0.00118,,
3.162,0.06575,-0.00144,,
3.163,0.06629,-0.00173,,
3.164,0.06584,-0.002,,
3.165,0.06458,-0.00222,,
3.166,0.06284,-0.00236,,
3.167,0.06089,-0.00239,,
3.168,0.05898,-0.0023,,
3.169,0.0573,-0.00207,,
3.17,0.05599,-0.00171,,
3.171,0.05518,-0.00122,,
3.172,0.05493,-6.28E-04,,
3.173,0.05518,4.87E-05,,
3.174,0.0558,7.72E-04,,
3.175,0.05659,0.0015,,
3.176,0.05736,0.0022,,
3.177,0.05792,0.00283,,
3.178,0.05805,0.00337,,
3.179,0.05759,0.00379,,
3.18,0.05637,0.00407,,
3.181,0.05435,0.0042,,
3.182,0.05155,0.00419,,
3.183,0.04808,0.00404,,
3.184,0.04412,0.00378,,
3.185,0.03992,0.00342,,
3.186,0.03578,0.00298,,
3.187,0.032,0.0025,,
3.188,0.02891,0.00199,,
3.189,0.02678,0.00149,,
3.19,0.02589,0.001,,
3.191,0.02634,5.56E-04,,
3.192,0.02818,1.58E-04,,
3.193,0.03137,-1.79E-04,,
3.194,0.03576,-4.44E-04,,
3.195,0.04107,-6.35E-04,,
3.196,0.04694,-7.48E-04,,
3.197,0.05295,-7.80E-04,,
3.198,0.05869,-7.26E-04,,
3.199,0.06376,-5.82E-04,,
3.2,0.06773,-3.51E-04,,
3.201,0.07031,-3.79E-05,,
3.202,0.07129,3.53E-04,,
3.203,0.07059,8.12E-04,,
3.204,0.06832,0.00133,,
3.205,0.06463,0.00189,,
3.206,0.05986,0.00246,,
3.207,0.05444,0.00304,,
3.208,0.04885,0.0036,,
3.209,0.04367,0.00412,,
3.21,0.03934,0.00457,,
3.211,0.03635,0.00494,,
3.212,0.03503,0.00523,,
3.213,0.03564,0.00543,,
3.214,0.03834,0.00552,,
3.215,0.04293,0.00552,,
3.216,0.04918,0.00542,,
3.217,0.05672,0.00524,,
3.218,0.06507,0.00499,,
3.219,0.07375,0.00468,,
3.22,0.0821,0.00431,,
3.221,0.08962,0.0039,,
3.222,0.09586,0.00344,,
3.223,0.10044,0.00295,,
3.224,0.10316,0.00244,,
3.225,0.10414,0.00191,,
3.226,0.10367,0.00139,,
3.227,0.10212,8.98E-04,,
3.228,0.09991,4.50E-04,,
3.229,0.09728,7.71E-05,,
3.23,0.09533,-1.78E-04,,
3.231,0.09471,-2.80E-04,,
3.232,0.09597,-1.94E-04,,
3.233,0.09922,1.02E-04,,
3.234,0.10385,6.10E-04,,
3.235,0.11036,0.00136,,
3.236,0.11822,0.00234,,
3.237,0.12671,0.00352,,
3.238,0.13453,0.00484,,
3.239,0.13959,0.00622,,
3.24,0.14111,0.00759,,
3.241,0.13748,0.00886,,
3.242,0.12732,0.00992,,
3.243,0.10915,0.01067,,
3.244,0.08147,0.01098,,
3.245,0.04409,0.01079,,
3.246,-0.00328,0.01004,,
3.247,-0.06035,0.00869,,
3.248,-0.12627,0.00675,,
3.249,-0.19956,0.00423,,
3.25,-0.27801,0.0012,,
3.251,-0.3595,-0.00224,,
3.252,-0.4415,-0.00598,,
3.253,-0.52102,-0.00986,,
3.254,-0.59459,-0.01373,,
3.255,-0.65924,-0.01742,,
3.256,-0.71287,-0.02078,,
3.257,-0.75356,-0.02367,,
3.258,-0.77943,-0.02597,,
3.259,-0.78873,-0.02755,,
3.26,-0.78108,-0.02834,,
3.261,-0.75746,-0.02835,,
3.262,-0.71908,-0.02757,,
3.263,-0.66729,-0.02605,,
3.264,-0.60368,-0.02384,,
3.265,-0.53087,-0.02105,,
3.266,-0.45225,-0.01783,,
3.267,-0.37083,-0.01434,,
3.268,-0.2893,-0.01071,,
3.269,-0.21008,-0.00711,,
3.27,-0.13577,-0.00366,,
3.271,-0.0685,-5.36E-04,,
3.272,-0.00975,0.00217,,
3.273,0.03956,0.00436,,
3.274,0.0791,0.006,,
3.275,0.10852,0.00706,,
3.276,0.12873,0.00755,,
3.277,0.14073,0.00752,,
3.278,0.14561,0.00704,,
3.279,0.14477,0.00622,,
3.28,0.13899,0.00513,,
3.281,0.13038,0.00391,,
3.282,0.12042,0.00269,,
3.283,0.11009,0.00157,,
3.284,0.10027,6.38E-04,,
3.285,0.09088,-6.44E-05,,
3.286,0.08299,-4.70E-04,,
3.287,0.07692,-5.59E-04,,
3.288,0.07251,-3.44E-04,,
3.289,0.0695,1.46E-04,,
3.29,0.06701,8.28E-04,,
3.291,0.06506,0.00165,,
3.292,0.06339,0.00254,,
3.293,0.06163,0.00344,,
3.294,0.05946,0.00426,,
3.295,0.05655,0.00495,,
3.296,0.05293,0.00548,,
3.297,0.04871,0.00584,,
3.298,0.04409,0.00602,,
3.299,0.03929,0.00605,,
3.3,0.03466,0.00596,,
3.301,0.03043,0.00581,,
3.302,0.02687,0.00563,,
3.303,0.02424,0.00548,,
3.304,0.02275,0.00539,,
3.305,0.02258,0.00538,,
3.306,0.02365,0.00547,,
3.307,0.02585,0.00566,,
3.308,0.02903,0.00591,,
3.309,0.03297,0.00618,,
3.31,0.03744,0.00644,,
3.311,0.04214,0.00663,,
3.312,0.04675,0.00671,,
3.313,0.05101,0.00663,,
3.314,0.05468,0.00635,,
3.315,0.05763,0.00587,,
3.316,0.05972,0.00518,,
3.317,0.06093,0.0043,,
3.318,0.06127,0.00328,,
3.319,0.06077,0.00215,,
3.32,0.05956,9.98E-04,,
3.321,0.05778,-1.19E-04,,
3.322,0.05557,-0.00113,,
3.323,0.05307,-0.00198,,
3.324,0.05041,-0.0026,,
3.325,0.0477,-0.00296,,
3.326,0.04503,-0.00304,,
3.327,0.04246,-0.00283,,
3.328,0.04004,-0.00236,,
3.329,0.03779,-0.00167,,
3.33,0.0357,-7.97E-04,,
3.331,0.03379,1.76E-04,,
3.332,0.03206,0.00118,,
3.333,0.03051,0.00213,,
3.334,0.0292,0.00296,,
3.335,0.02814,0.00359,,
3.336,0.02737,0.00397,,
3.337,0.02695,0.00405,,
3.338,0.02694,0.00381,,
3.339,0.0274,0.00326,,
3.34,0.02839,0.0024,,
3.341,0.02989,0.00127,,
3.342,0.03192,-6.73E-05,,
3.343,0.03442,-0.00155,,
3.344,0.03732,-0.00308,,
3.345,0.04056,-0.00457,,
3.346,0.04399,-0.00595,,
3.347,0.04747,-0.00713,,
3.348,0.05082,-0.00803,,
3.349,0.05384,-0.0086,,
3.35,0.05642,-0.00879,,
3.351,0.05843,-0.0086,,
3.352,0.05974,-0.00804,,
3.353,0.06028,-0.00713,,
3.354,0.05992,-0.00593,,
3.355,0.05873,-0.00449,,
3.356,0.05674,-0.00291,,
3.357,0.05404,-0.00127,,
3.358,0.05071,3.51E-04,,
3.359,0.0468,0.00186,,
3.36,0.04249,0.00321,,
3.361,0.03793,0.00432,,
3.362,0.03325,0.00518,,
3.363,0.02855,0.00577,,
3.364,0.02389,0.00608,,
3.365,0.01939,0.00615,,
3.366,0.01509,0.00601,,
3.367,0.01103,0.00572,,
3.368,0.00722,0.00532,,
3.369,0.00365,0.00485,,
3.37,3.55E-04,0.00437,,
3.371,-0.0027,0.0039,,
3.372,-0.00553,0.00349,,
3.373,-0.00813,0.00313,,
3.374,-0.01048,0.00283,,
3.375,-0.01251,0.00255,,
3.376,-0.01423,0.0023,,
3.377,-0.01562,0.00204,,
3.378,-0.01664,0.00175,,
3.379,-0.01723,0.0014,,
3.38,-0.0173,9.63E-04,,
3.381,-0.01686,4.47E-04,,
3.382,-0.01592,-1.53E-04,,
3.383,-0.01449,-8.23E-04,,
3.384,-0.01262,-0.00154,,
3.385,-0.0103,-0.00228,,
3.386,-0.00764,-0.00301,,
3.387,-0.00475,-0.0037,,
3.388,-0.00177,-0.00431,,
3.389,0.00113,-0.0048,,
3.39,0.00386,-0.00516,,
3.391,0.00625,-0.00538,,
3.392,0.00815,-0.00545,,
3.393,0.00943,-0.00537,,
3.394,0.00992,-0.00515,,
3.395,0.00959,-0.00482,,
3.396,0.00838,-0.00438,,
3.397,0.00628,-0.00388,,
3.398,0.00331,-0.00335,,
3.399,-5.15E-04,-0.0028,,
3.4,-0.00504,-0.00225,,
3.401,-0.01009,-0.00175,,
3.402,-0.01551,-0.0013,,
3.403,-0.02112,-9.20E-04,,
3.404,-0.02675,-6.26E-04,,
3.405,-0.03211,-4.21E-04,,
3.406,-0.03701,-3.11E-04,,
3.407,-0.04128,-2.97E-04,,
3.408,-0.04479,-3.76E-04,,
3.409,-0.0475,-5.44E-04,,
3.41,-0.04929,-7.87E-04,,
3.411,-0.0502,-0.00109,,
3.412,-0.05033,-0.00143,,
3.413,-0.04982,-0.0018,,
3.414,-0.04893,-0.00218,,
3.415,-0.04777,-0.00254,,
3.416,-0.04666,-0.00287,,
3.417,-0.04588,-0.00313,,
3.418,-0.04567,-0.00334,,
3.419,-0.04628,-0.00347,,
3.42,-0.04781,-0.00354,,
3.421,-0.05041,-0.00354,,
3.422,-0.05412,-0.00348,,
3.423,-0.0589,-0.00339,,
3.424,-0.06464,-0.00328,,
3.425,-0.07104,-0.00318,,
3.426,-0.07788,-0.00311,,
3.427,-0.08485,-0.00308,,
3.428,-0.09163,-0.00312,,
3.429,-0.09789,-0.00323,,
3.43,-0.10322,-0.00342,,
3.431,-0.10739,-0.00366,,
3.432,-0.1102,-0.00396,,
3.433,-0.11156,-0.00429,,
3.434,-0.11149,-0.00464,,
3.435,-0.10995,-0.00497,,
3.436,-0.10719,-0.00527,,
3.437,-0.10348,-0.00552,,
3.438,-0.09915,-0.0057,,
3.439,-0.09466,-0.00581,,
3.44,-0.09031,-0.00585,,
3.441,-0.08656,-0.00581,,
3.442,-0.08377,-0.00572,,
3.443,-0.08226,-0.00559,,
3.444,-0.0823,-0.00545,,
3.445,-0.08396,-0.0053,,
3.446,-0.08729,-0.00518,,
3.447,-0.09222,-0.00509,,
3.448,-0.09858,-0.00506,,
3.449,-0.10611,-0.00509,,
3.45,-0.11444,-0.00519,,
3.451,-0.12318,-0.00536,,
3.452,-0.13197,-0.00561,,
3.453,-0.14041,-0.00591,,
3.454,-0.14809,-0.00628,,
3.455,-0.15468,-0.00669,,
3.456,-0.15994,-0.00714,,
3.457,-0.16373,-0.00763,,
3.458,-0.16594,-0.00814,,
3.459,-0.16656,-0.00866,,
3.46,-0.16563,-0.00917,,
3.461,-0.16333,-0.00967,,
3.462,-0.15987,-0.01013,,
3.463,-0.15549,-0.01055,,
3.464,-0.15048,-0.01091,,
3.465,-0.14503,-0.01119,,
3.466,-0.13946,-0.01137,,
3.467,-0.13403,-0.01145,,
3.468,-0.12893,-0.01143,,
3.469,-0.12441,-0.01129,,
3.47,-0.12054,-0.01105,,
3.471,-0.11747,-0.01072,,
3.472,-0.11529,-0.01032,,
3.473,-0.11405,-0.00987,,
3.474,-0.11383,-0.0094,,
3.475,-0.11459,-0.00893,,
3.476,-0.11634,-0.00849,,
3.477,-0.11905,-0.00812,,
3.478,-0.12268,-0.00783,,
3.479,-0.12716,-0.00762,,
3.48,-0.13242,-0.00751,,
3.481,-0.1383,-0.00749,,
3.482,-0.14465,-0.00755,,
3.483,-0.1513,-0.00766,,
3.484,-0.158,-0.00781,,
3.485,-0.16452,-0.00796,,
3.486,-0.1706,-0.00808,,
3.487,-0.17597,-0.00816,,
3.488,-0.18037,-0.00817,,
3.489,-0.18352,-0.00809,,
3.49,-0.18525,-0.00792,,
3.491,-0.18543,-0.00766,,
3.492,-0.18401,-0.0073,,
3.493,-0.18098,-0.00688,,
3.494,-0.17642,-0.0064,,
3.495,-0.1705,-0.00589,,
3.496,-0.16353,-0.00537,,
3.497,-0.15583,-0.00486,,
3.498,-0.14776,-0.00439,,
3.499,-0.13969,-0.00397,,
3.5,-0.13202,-0.00362,,
3.501,-0.12513,-0.00336,,
3.502,-0.11932,-0.00319,,
3.503,-0.11482,-0.00311,,
3.504,-0.11177,-0.00314,,
3.505,-0.11025,-0.00326,,
3.506,-0.11018,-0.00348,,
3.507,-0.1114,-0.00377,,
3.508,-0.11371,-0.00414,,
3.509,-0.11678,-0.00456,,
3.51,-0.12037,-0.00502,,
3.511,-0.12408,-0.00548,,
3.512,-0.1276,-0.00593,,
3.513,-0.13063,-0.00633,,
3.514,-0.1329,-0.00666,,
3.515,-0.13436,-0.0069,,
3.516,-0.1349,-0.00702,,
3.517,-0.1345,-0.00702,,
3.518,-0.13324,-0.00687,,
3.519,-0.13115,-0.00659,,
3.52,-0.12855,-0.00618,,
3.521,-0.1256,-0.00566,,
3.522,-0.12246,-0.00506,,
3.523,-0.11929,-0.00442,,
3.524,-0.11612,-0.00377,,
3.525,-0.11314,-0.00316,,
3.526,-0.11035,-0.00261,,
3.527,-0.1077,-0.00216,,
3.528,-0.10508,-0.00184,,
3.529,-0.10226,-0.00165,,
3.53,-0.09921,-0.00161,,
3.531,-0.09577,-0.0017,,
3.532,-0.09181,-0.00191,,
3.533,-0.0872,-0.00221,,
3.534,-0.0818,-0.00255,,
3.535,-0.07577,-0.00292,,
3.536,-0.06916,-0.00328,,
3.537,-0.06208,-0.00359,,
3.538,-0.0547,-0.00383,,
3.539,-0.04715,-0.00397,,
3.54,-0.03985,-0.004,,
3.541,-0.03295,-0.00393,,
3.542,-0.02663,-0.00376,,
3.543,-0.02104,-0.00349,,
3.544,-0.01619,-0.00313,,
3.545,-0.01232,-0.00271,,
3.546,-0.00926,-0.00223,,
3.547,-0.00689,-0.00171,,
3.548,-0.00502,-0.00116,,
3.549,-0.00338,-5.82E-04,,
3.55,-0.0019,1.56E-05,,
3.551,-2.40E-04,6.32E-04,,
3.552,0.00184,0.00127,,
3.553,0.00451,0.00192,,
3.554,0.00795,0.00257,,
3.555,0.01203,0.00321,,
3.556,0.01681,0.00384,,
3.557,0.02221,0.00443,,
3.558,0.02806,0.00496,,
3.559,0.03415,0.0054,,
3.56,0.0401,0.00572,,
3.561,0.04572,0.0059,,
3.562,0.05081,0.00593,,
3.563,0.05513,0.00579,,
3.564,0.05853,0.00546,,
3.565,0.06084,0.00496,,
3.566,0.06211,0.00429,,
3.567,0.06244,0.00348,,
3.568,0.06196,0.00256,,
3.569,0.06081,0.00155,,
3.57,0.0592,5.04E-04,,
3.571,0.05741,-5.44E-04,,
3.572,0.0557,-0.00155,,
3.573,0.05426,-0.00249,,
3.574,0.05322,-0.00331,,
3.575,0.05266,-0.004,,
3.576,0.05262,-0.00454,,
3.577,0.05306,-0.00491,,
3.578,0.05387,-0.00513,,
3.579,0.05489,-0.00518,,
3.58,0.05586,-0.00508,,
3.581,0.05661,-0.00485,,
3.582,0.05694,-0.00452,,
3.583,0.05667,-0.00411,,
3.584,0.05571,-0.00365,,
3.585,0.05398,-0.00315,,
3.586,0.05153,-0.00265,,
3.587,0.04846,-0.00219,,
3.588,0.04496,-0.00177,,
3.589,0.04127,-0.00141,,
3.59,0.03769,-0.00111,,
3.591,0.03449,-8.80E-04,,
3.592,0.03196,-7.17E-04,,
3.593,0.03033,-6.06E-04,,
3.594,0.02979,-5.28E-04,,
3.595,0.03049,-4.59E-04,,
3.596,0.03241,-3.74E-04,,
3.597,0.03547,-2.47E-04,,
3.598,0.03951,-5.54E-05,,
3.599,0.04428,2.19E-04,,
3.6,0.04947,5.82E-04,,
3.601,0.05473,0.00104,,
3.602,0.05971,0.00158,,
3.603,0.06406,0.00219,,
3.604,0.06746,0.00283,,
3.605,0.06969,0.00346,,
3.606,0.07059,0.00405,,
3.607,0.07011,0.00454,,
3.608,0.0683,0.0049,,
3.609,0.06525,0.0051,,
3.61,0.0612,0.00509,,
3.611,0.05641,0.00489,,
3.612,0.0512,0.00449,,
3.613,0.04589,0.00391,,
3.614,0.04081,0.00319,,
3.615,0.03623,0.00237,,
3.616,0.0324,0.00152,,
3.617,0.02948,6.94E-04,,
3.618,0.02756,-5.01E-05,,
3.619,0.0267,-6.55E-04,,
3.62,0.02682,-0.00108,,
3.621,0.02783,-0.00129,,
3.622,0.02956,-0.00129,,
3.623,0.03184,-0.00106,,
3.624,0.03448,-6.37E-04,,
3.625,0.0373,-5.41E-05,,
3.626,0.04011,6.40E-04,,
3.627,0.04277,0.00139,,
3.628,0.04519,0.00214,,
3.629,0.0473,0.00285,,
3.63,0.0491,0.00346,,
3.631,0.05059,0.00394,,
3.632,0.0518,0.00426,,
3.633,0.05279,0.00443,,
3.634,0.05363,0.00445,,
3.635,0.05437,0.00433,,
3.636,0.05504,0.00411,,
3.637,0.05568,0.00383,,
3.638,0.05628,0.00351,,
3.639,0.05682,0.0032,,
3.64,0.05724,0.00293,,
3.641,0.05751,0.00273,,
3.642,0.05757,0.0026,,
3.643,0.05737,0.00257,,
3.644,0.05689,0.00262,,
3.645,0.05608,0.00274,,
3.646,0.05498,0.00292,,
3.647,0.05365,0.00314,,
3.648,0.05216,0.00336,,
3.649,0.05061,0.00356,,
3.65,0.04913,0.00372,,
3.651,0.04787,0.00381,,
3.652,0.04696,0.00383,,
3.653,0.04652,0.00377,,
3.654,0.04662,0.00362,,
3.655,0.04736,0.00339,,
3.656,0.04873,0.0031,,
3.657,0.05071,0.00276,,
3.658,0.0532,0.0024,,
3.659,0.05603,0.00204,,
3.66,0.05904,0.0017,,
3.661,0.062,0.00141,,
3.662,0.06471,0.00119,,
3.663,0.0669,0.00107,,
3.664,0.06832,0.00105,,
3.665,0.0688,0.00114,,
3.666,0.0682,0.00133,,
3.667,0.06643,0.00162,,
3.668,0.06347,0.00198,,
3.669,0.05936,0.0024,,
3.67,0.05425,0.00285,,
3.671,0.04832,0.00329,,
3.672,0.04181,0.00369,,
3.673,0.03503,0.00402,,
3.674,0.02829,0.00426,,
3.675,0.02193,0.00439,,
3.676,0.01625,0.00442,,
3.677,0.01149,0.00434,,
3.678,0.00789,0.00417,,
3.679,0.00563,0.00394,,
3.68,0.00479,0.00368,,
3.681,0.00535,0.00343,,
3.682,0.00722,0.00324,,
3.683,0.01027,0.00315,,
3.684,0.01432,0.00317,,
3.685,0.01911,0.00334,,
3.686,0.02435,0.00366,,
3.687,0.02972,0.00413,,
3.688,0.03497,0.00473,,
3.689,0.03985,0.00542,,
3.69,0.04417,0.00614,,
3.691,0.04775,0.00686,,
3.692,0.0505,0.00752,,
3.693,0.05239,0.00807,,
3.694,0.05344,0.00845,,
3.695,0.05374,0.00864,,
3.696,0.05342,0.00861,,
3.697,0.05263,0.00837,,
3.698,0.05154,0.00792,,
3.699,0.05029,0.00731,,
3.7,0.04902,0.00657,,
3.701,0.04787,0.00575,,
3.702,0.04691,0.00491,,
3.703,0.04618,0.00411,,
3.704,0.04568,0.00342,,
3.705,0.04532,0.00286,,
3.706,0.04506,0.00247,,
3.707,0.0448,0.00227,,
3.708,0.04444,0.00226,,
3.709,0.0439,0.00244,,
3.71,0.04307,0.00279,,
3.711,0.04192,0.00327,,
3.712,0.04045,0.00385,,
3.713,0.03871,0.00449,,
3.714,0.03678,0.00515,,
3.715,0.03478,0.0058,,
3.716,0.03288,0.00641,,
3.717,0.03123,0.00697,,
3.718,0.03002,0.00745,,
3.719,0.0294,0.00787,,
3.72,0.02952,0.00821,,
3.721,0.03043,0.00848,,
3.722,0.03216,0.00869,,
3.723,0.03467,0.00885,,
3.724,0.03784,0.00897,,
3.725,0.04149,0.00905,,
3.726,0.04538,0.0091,,
3.727,0.04923,0.00912,,
3.728,0.05277,0.0091,,
3.729,0.05574,0.00904,,
3.73,0.05785,0.00894,,
3.731,0.0589,0.0088,,
3.732,0.05876,0.0086,,
3.733,0.05741,0.00836,,
3.734,0.05494,0.00806,,
3.735,0.05147,0.00772,,
3.736,0.04727,0.00735,,
3.737,0.04267,0.00695,,
3.738,0.03805,0.00654,,
3.739,0.03384,0.00614,,
3.74,0.03044,0.00576,,
3.741,0.02823,0.00542,,
3.742,0.02751,0.00513,,
3.743,0.02848,0.00492,,
3.744,0.0312,0.0048,,
3.745,0.03565,0.00477,,
3.746,0.04164,0.00485,,
3.747,0.04887,0.00503,,
3.748,0.05694,0.0053,,
3.749,0.0653,0.00566,,
3.75,0.07341,0.00608,,
3.751,0.08073,0.00655,,
3.752,0.08676,0.00703,,
3.753,0.09104,0.00749,,
3.754,0.09317,0.00789,,
3.755,0.09295,0.00822,,
3.756,0.09033,0.00844,,
3.757,0.08542,0.00852,,
3.758,0.07843,0.00846,,
3.759,0.06972,0.00824,,
3.76,0.05979,0.00788,,
3.761,0.04922,0.00739,,
3.762,0.03858,0.00682,,
3.763,0.02845,0.00618,,
3.764,0.01939,0.00552,,
3.765,0.01184,0.00489,,
3.766,0.00614,0.00433,,
3.767,0.00248,0.00388,,
3.768,9.18E-04,0.00355,,
3.769,0.00143,0.00336,,
3.77,0.00379,0.00331,,
3.771,0.00764,0.00338,,
3.772,0.0126,0.00355,,
3.773,0.01824,0.00376,,
3.774,0.02418,0.00398,,
3.775,0.03,0.00415,,
3.776,0.0353,0.00423,,
3.777,0.03983,0.00417,,
3.778,0.04343,0.00394,,
3.779,0.04605,0.00353,,
3.78,0.04777,0.00294,,
3.781,0.04869,0.00219,,
3.782,0.049,0.00131,,
3.783,0.04895,3.61E-04,,
3.784,0.0488,-6.16E-04,,
3.785,0.04881,-0.00155,,
3.786,0.04919,-0.00237,,
3.787,0.05009,-0.00305,,
3.788,0.05157,-0.00353,,
3.789,0.05359,-0.0038,,
3.79,0.05604,-0.00382,,
3.791,0.05878,-0.00362,,
3.792,0.06159,-0.00321,,
3.793,0.06419,-0.00265,,
3.794,0.06629,-0.00196,,
3.795,0.0676,-0.00122,,
3.796,0.06796,-4.70E-04,,
3.797,0.06724,2.26E-04,,
3.798,0.06537,8.22E-04,,
3.799,0.06236,0.00128,,
3.8,0.05834,0.00158,,
3.801,0.05354,0.0017,,
3.802,0.04825,0.00164,,
3.803,0.0428,0.00142,,
3.804,0.03751,0.00106,,
3.805,0.03277,5.97E-04,,
3.806,0.02887,6.10E-05,,
3.807,0.02608,-5.09E-04,,
3.808,0.02454,-0.00108,,
3.809,0.0243,-0.0016,,
3.81,0.02536,-0.00206,,
3.811,0.02756,-0.00243,,
3.812,0.03064,-0.00269,,
3.813,0.03429,-0.00284,,
3.814,0.03815,-0.00286,,
3.815,0.04185,-0.00277,,
3.816,0.045,-0.00257,,
3.817,0.04728,-0.00229,,
3.818,0.04841,-0.00194,,
3.819,0.04821,-0.00154,,
3.82,0.04667,-0.00112,,
3.821,0.04382,-7.00E-04,,
3.822,0.03982,-3.01E-04,,
3.823,0.03491,5.93E-05,,
3.824,0.02938,3.68E-04,,
3.825,0.0237,6.14E-04,,
3.826,0.01825,7.90E-04,,
3.827,0.01342,8.98E-04,,
3.828,0.00951,9.46E-04,,
3.829,0.00674,9.50E-04,,
3.83,0.00537,9.18E-04,,
3.831,0.00543,8.69E-04,,
3.832,0.00685,8.20E-04,,
3.833,0.00943,7.89E-04,,
3.834,0.01283,7.97E-04,,
3.835,0.01674,8.43E-04,,
3.836,0.02072,9.36E-04,,
3.837,0.02431,0.00108,,
3.838,0.02708,0.00126,,
3.839,0.02858,0.00149,,
3.84,0.02854,0.00174,,
3.841,0.0267,0.002,,
3.842,0.02294,0.00227,,
3.843,0.0173,0.00254,,
3.844,0.00993,0.0028,,
3.845,0.00113,0.00307,,
3.846,-0.00877,0.00334,,
3.847,-0.01932,0.00362,,
3.848,-0.03002,0.00395,,
3.849,-0.04024,0.00432,,
3.85,-0.04949,0.00476,,
3.851,-0.05731,0.00527,,
3.852,-0.06333,0.00586,,
3.853,-0.06721,0.00653,,
3.854,-0.06867,0.00726,,
3.855,-0.06765,0.00803,,
3.856,-0.06423,0.00881,,
3.857,-0.0586,0.00956,,
3.858,-0.051,0.01025,,
3.859,-0.0417,0.01082,,
3.86,-0.03117,0.01125,,
3.861,-0.01992,0.01149,,
3.862,-0.00841,0.01154,,
3.863,0.00292,0.01138,,
3.864,0.01369,0.01101,,
3.865,0.02348,0.01044,,
3.866,0.03199,0.00971,,
3.867,0.03902,0.00886,,
3.868,0.04445,0.00792,,
3.869,0.04833,0.00695,,
3.87,0.05061,0.00599,,
3.871,0.05148,0.00508,,
3.872,0.05115,0.00427,,
3.873,0.04988,0.00357,,
3.874,0.04801,0.00302,,
3.875,0.0457,0.00262,,
3.876,0.04336,0.00236,,
3.877,0.04127,0.00224,,
3.878,0.03968,0.00225,,
3.879,0.03883,0.00235,,
3.88,0.03875,0.00255,,
3.881,0.03962,0.0028,,
3.882,0.0415,0.00309,,
3.883,0.04436,0.00341,,
3.884,0.04813,0.00374,,
3.885,0.0526,0.00409,,
3.886,0.05765,0.00443,,
3.887,0.06311,0.00476,,
3.888,0.06875,0.00509,,
3.889,0.07432,0.00541,,
3.89,0.07955,0.00572,,
3.891,0.08425,0.00603,,
3.892,0.08824,0.00632,,
3.893,0.09136,0.00659,,
3.894,0.09345,0.00683,,
3.895,0.09443,0.00704,,
3.896,0.09428,0.00722,,
3.897,0.09304,0.00736,,
3.898,0.09078,0.00745,,
3.899,0.08757,0.00749,,
3.9,0.08357,0.00746,,
3.901,0.079,0.00738,,
3.902,0.07409,0.00723,,
3.903,0.06903,0.00702,,
3.904,0.06403,0.00675,,
3.905,0.0593,0.00641,,
3.906,0.05504,0.00601,,
3.907,0.05138,0.00556,,
3.908,0.04844,0.00506,,
3.909,0.04629,0.00454,,
3.91,0.04491,0.00401,,
3.911,0.04427,0.00349,,
3.912,0.04428,0.00301,,
3.913,0.04482,0.00258,,
3.914,0.04582,0.00224,,
3.915,0.04711,0.00202,,
3.916,0.04852,0.00192,,
3.917,0.04992,0.00195,,
3.918,0.05124,0.00214,,
3.919,0.05242,0.00247,,
3.92,0.05348,0.00293,,
3.921,0.05443,0.00349,,
3.922,0.05531,0.00412,,
3.923,0.05623,0.0048,,
3.924,0.05728,0.00548,,
3.925,0.05864,0.00613,,
3.926,0.06042,0.00671,,
3.927,0.06269,0.0072,,
3.928,0.0655,0.00758,,
3.929,0.06879,0.00785,,
3.93,0.07253,0.00801,,
3.931,0.07656,0.00809,,
3.932,0.08071,0.0081,,
3.933,0.08472,0.00809,,
3.934,0.08829,0.00807,,
3.935,0.09105,0.0081,,
3.936,0.09271,0.00818,,
3.937,0.093,0.00836,,
3.938,0.0917,0.00862,,
3.939,0.08876,0.00897,,
3.94,0.08402,0.00938,,
3.941,0.07761,0.00983,,
3.942,0.0697,0.01028,,
3.943,0.06065,0.01069,,
3.944,0.05099,0.01101,,
3.945,0.04123,0.01119,,
3.946,0.03204,0.01121,,
3.947,0.02405,0.01104,,
3.948,0.01786,0.01068,,
3.949,0.01402,0.01011,,
3.95,0.01327,0.00937,,
3.951,0.01603,0.00848,,
3.952,0.02252,0.0075,,
3.953,0.03268,0.00647,,
3.954,0.04588,0.00542,,
3.955,0.06227,0.00443,,
3.956,0.08116,0.00354,,
3.957,0.10177,0.0028,,
3.958,0.12287,0.00222,,
3.959,0.14251,0.00179,,
3.96,0.16011,0.00155,,
3.961,0.17425,0.00146,,
3.962,0.18367,0.0015,,
3.963,0.18691,0.00162,,
3.964,0.18207,0.00174,,
3.965,0.16887,0.00185,,
3.966,0.1466,0.00187,,
3.967,0.11494,0.00175,,
3.968,0.07375,0.00144,,
3.969,0.02306,8.67E-04,,
3.97,-0.03601,3.77E-05,,
3.971,-0.1024,-0.00108,,
3.972,-0.1747,-0.00248,,
3.973,-0.25114,-0.00416,,
3.974,-0.32945,-0.00608,,
3.975,-0.40725,-0.00819,,
3.976,-0.48246,-0.01043,,
3.977,-0.55292,-0.01274,,
3.978,-0.61626,-0.01503,,
3.979,-0.66979,-0.01723,,
3.98,-0.71163,-0.01924,,
3.981,-0.74086,-0.021,,
3.982,-0.75667,-0.02245,,
3.983,-0.75824,-0.02355,,
3.984,-0.74488,-0.02423,,
3.985,-0.71697,-0.02447,,
3.986,-0.67613,-0.02431,,
3.987,-0.62395,-0.02377,,
3.988,-0.562,-0.02289,,
3.989,-0.49199,-0.02169,,
3.99,-0.4163,-0.02025,,
3.991,-0.33796,-0.01865,,
3.992,-0.25958,-0.01697,,
3.993,-0.18344,-0.01525,,
3.994,-0.11161,-0.01355,,
3.995,-0.04627,-0.01192,,
3.996,0.01095,-0.0104,,
3.997,0.05892,-0.00899,,
3.998,0.09694,-0.00772,,
3.999,0.12486,-0.00657,,
4.0,0.14237,-0.00553,,
4.001,0.15065,-0.00458,,
4.002,0.15084,-0.00371,,
4.003,0.14415,-0.0029,,
4.004,0.13216,-0.00214,,
4.005,0.11578,-0.00144,,
4.006,0.09741,-8.06E-04,,
4.007,0.07877,-2.33E-04,,
4.008,0.06115,2.53E-04,,
4.009,0.04574,6.34E-04,,
4.01,0.03276,8.67E-04,,
4.011,0.02339,9.57E-04,,
4.012,0.01804,9.00E-04,,
4.013,0.01659,6.94E-04,,
4.014,0.0187,3.49E-04,,
4.015,0.02338,-1.30E-04,,
4.016,0.03019,-6.95E-04,,
4.017,0.0384,-0.0013,,
4.018,0.04715,-0.00191,,
4.019,0.05557,-0.00248,,
4.02,0.06284,-0.00297,,
4.021,0.06838,-0.00334,,
4.022,0.07183,-0.00358,,
4.023,0.07299,-0.00365,,
4.024,0.07185,-0.00357,,
4.025,0.06866,-0.00335,,
4.026,0.06369,-0.00302,,
4.027,0.0574,-0.00261,,
4.028,0.05033,-0.00215,,
4.029,0.04305,-0.0017,,
4.03,0.0362,-0.00128,,
4.031,0.03023,-9.35E-04,,
4.032,0.02549,-6.93E-04,,
4.033,0.02225,-5.66E-04,,
4.034,0.02066,-5.56E-04,,
4.035,0.0207,-6.56E-04,,
4.036,0.02223,-8.47E-04,,
4.037,0.025,-0.0011,,
4.038,0.02867,-0.00139,,
4.039,0.03286,-0.00168,,
4.04,0.03716,-0.00193,,
4.041,0.04118,-0.00209,,
4.042,0.04462,-0.00216,,
4.043,0.04723,-0.0021,,
4.044,0.04885,-0.00191,,
4.045,0.04942,-0.00159,,
4.046,0.04897,-0.00116,,
4.047,0.04763,-6.21E-04,,
4.048,0.0456,-1.75E-05,,
4.049,0.04313,6.13E-04,,
4.05,0.04051,0.00122,,
4.051,0.03801,0.00177,,
4.052,0.03586,0.00222,,
4.053,0.03425,0.00252,,
4.054,0.03331,0.00265,,
4.055,0.03312,0.00258,,
4.056,0.03367,0.0023,,
4.057,0.03486,0.00183,,
4.058,0.03656,0.00117,,
4.059,0.03858,3.62E-04,,
4.06,0.04069,-5.47E-04,,
4.061,0.0427,-0.0015,,
4.062,0.04441,-0.00244,,
4.063,0.04564,-0.0033,,
4.064,0.04627,-0.00402,,
4.065,0.04624,-0.00453,,
4.066,0.04554,-0.0048,,
4.067,0.04423,-0.00479,,
4.068,0.04242,-0.00451,,
4.069,0.04023,-0.00394,,
4.07,0.03787,-0.00313,,
4.071,0.03551,-0.00212,,
4.072,0.03334,-9.66E-04,,
4.073,0.03149,2.58E-04,,
4.074,0.03008,0.00147,,
4.075,0.02922,0.0026,,
4.076,0.02892,0.00358,,
4.077,0.02915,0.00435,,
4.078,0.02984,0.00486,,
4.079,0.03083,0.00509,,
4.08,0.03203,0.00504,,
4.081,0.03326,0.00473,,
4.082,0.03436,0.00418,,
4.083,0.03517,0.00345,,
4.084,0.0355,0.00258,,
4.085,0.03532,0.00162,,
4.086,0.03455,6.52E-04,,
4.087,0.03318,-2.92E-04,,
4.088,0.03122,-0.00117,,
4.089,0.02867,-0.00194,,
4.09,0.0257,-0.0026,,
4.091,0.0224,-0.00314,,
4.092,0.01887,-0.00358,,
4.093,0.01522,-0.00391,,
4.094,0.0115,-0.00416,,
4.095,0.00785,-0.00434,,
4.096,0.00432,-0.00448,,
4.097,8.99E-04,-0.00457,,
4.098,-0.00241,-0.00462,,
4.099,-0.00564,-0.00462,,
4.1,-0.00879,-0.00455,,
4.101,-0.01192,-0.00439,,
4.102,-0.01509,-0.00413,,
4.103,-0.01833,-0.00375,,
4.104,-0.02164,-0.00324,,
4.105,-0.02495,-0.00258,,
4.106,-0.02824,-0.00178,,
4.107,-0.03146,-8.59E-04,,
4.108,-0.0345,1.45E-04,,
4.109,-0.03725,0.00119,,
4.11,-0.03951,0.00223,,
4.111,-0.04121,0.00321,,
4.112,-0.04227,0.00407,,
4.113,-0.0426,0.00475,,
4.114,-0.04219,0.00521,,
4.115,-0.04096,0.0054,,
4.116,-0.03903,0.00531,,
4.117,-0.03653,0.00493,,
4.118,-0.0336,0.00427,,
4.119,-0.03046,0.00337,,
4.12,-0.02726,0.00226,,
4.121,-0.02427,0.00101,,
4.122,-0.02171,-3.22E-04,,
4.123,-0.01978,-0.00165,,
4.124,-0.01869,-0.00292,,
4.125,-0.0185,-0.00404,,
4.126,-0.01927,-0.00496,,
4.127,-0.021,-0.00562,,
4.128,-0.02364,-0.006,,
4.129,-0.02708,-0.00607,,
4.13,-0.0311,-0.00583,,
4.131,-0.03546,-0.00531,,
4.132,-0.03994,-0.00452,,
4.133,-0.04429,-0.00353,,
4.134,-0.04833,-0.0024,,
4.135,-0.0518,-0.00119,,
4.136,-0.05454,1.80E-05,,
4.137,-0.05646,0.00115,,
4.138,-0.05755,0.00213,,
4.139,-0.05788,0.00291,,
4.14,-0.05749,0.00345,,
4.141,-0.05657,0.00371,,
4.142,-0.05533,0.00368,,
4.143,-0.05401,0.00338,,
4.144,-0.05291,0.00283,,
4.145,-0.05221,0.00209,,
4.146,-0.05217,0.00122,,
4.147,-0.05295,2.87E-04,,
4.148,-0.05468,-6.36E-04,,
4.149,-0.05747,-0.00148,,
4.15,-0.06119,-0.00218,,
4.151,-0.06578,-0.00268,,
4.152,-0.07108,-0.00296,,
4.153,-0.07689,-0.00299,,
4.154,-0.08298,-0.00279,,
4.155,-0.08895,-0.00239,,
4.156,-0.09456,-0.00184,,
4.157,-0.09953,-0.00119,,
4.158,-0.10367,-5.12E-04,,
4.159,-0.10686,1.15E-04,,
4.16,-0.10888,6.29E-04,,
4.161,-0.10976,9.74E-04,,
4.162,-0.1096,0.00111,,
4.163,-0.10854,0.001,,
4.164,-0.10689,6.49E-04,,
4.165,-0.10483,7.32E-05,,
4.166,-0.10272,-6.94E-04,,
4.167,-0.10091,-0.0016,,
4.168,-0.09973,-0.0026,,
4.169,-0.09954,-0.00363,,
4.17,-0.10047,-0.0046,,
4.171,-0.10273,-0.00548,,
4.172,-0.10641,-0.00621,,
4.173,-0.11149,-0.00677,,
4.174,-0.11787,-0.00714,,
4.175,-0.12524,-0.00731,,
4.176,-0.13335,-0.00731,,
4.177,-0.14187,-0.00716,,
4.178,-0.15041,-0.00692,,
4.179,-0.15859,-0.00661,,
4.18,-0.16594,-0.00629,,
4.181,-0.17216,-0.006,,
4.182,-0.17699,-0.00579,,
4.183,-0.18026,-0.00568,,
4.184,-0.18187,-0.00568,,
4.185,-0.18177,-0.0058,,
4.186,-0.18014,-0.00602,,
4.187,-0.1772,-0.00634,,
4.188,-0.17323,-0.00673,,
4.189,-0.16859,-0.00714,,
4.19,-0.16361,-0.00754,,
4.191,-0.15874,-0.00788,,
4.192,-0.15436,-0.00814,,
4.193,-0.15079,-0.00828,,
4.194,-0.14827,-0.00829,,
4.195,-0.14694,-0.00814,,
4.196,-0.14692,-0.00784,,
4.197,-0.14818,-0.0074,,
4.198,-0.1506,-0.00684,,
4.199,-0.15396,-0.00619,,
4.2,-0.15795,-0.0055,,
4.201,-0.16225,-0.0048,,
4.202,-0.16653,-0.00416,,
4.203,-0.17043,-0.0036,,
4.204,-0.17363,-0.00319,,
4.205,-0.17586,-0.00296,,
4.206,-0.17692,-0.00294,,
4.207,-0.1767,-0.00314,,
4.208,-0.1752,-0.00356,,
4.209,-0.17253,-0.00418,,
4.21,-0.16886,-0.00498,,
4.211,-0.16446,-0.00589,,
4.212,-0.15964,-0.00687,,
4.213,-0.15474,-0.00784,,
4.214,-0.15015,-0.00873,,
4.215,-0.14623,-0.00947,,
4.216,-0.1433,-0.01001,,
4.217,-0.1416,-0.01028,,
4.218,-0.14126,-0.01027,,
4.219,-0.14233,-0.00995,,
4.22,-0.14481,-0.00933,,
4.221,-0.14855,-0.00844,,
4.222,-0.15334,-0.00733,,
4.223,-0.15884,-0.00607,,
4.224,-0.16461,-0.00473,,
4.225,-0.17031,-0.00338,,
4.226,-0.17553,-0.00212,,
4.227,-0.1799,-0.00101,,
4.228,-0.18304,-1.03E-04,,
4.229,-0.18458,5.46E-04,,
4.23,-0.1844,9.20E-04,,
4.231,-0.18241,0.00102,,
4.232,-0.1786,8.62E-04,,
4.233,-0.17303,4.84E-04,,
4.234,-0.16579,-7.25E-05,,
4.235,-0.15726,-7.48E-04,,
4.236,-0.14773,-0.00148,,
4.237,-0.13756,-0.00221,,
4.238,-0.12707,-0.00289,,
4.239,-0.11657,-0.00348,,
4.24,-0.10651,-0.00397,,
4.241,-0.09716,-0.00432,,
4.242,-0.08873,-0.00456,,
4.243,-0.08138,-0.00469,,
4.244,-0.07516,-0.00474,,
4.245,-0.07023,-0.00474,,
4.246,-0.0665,-0.00472,,
4.247,-0.06388,-0.0047,,
4.248,-0.06221,-0.00473,,
4.249,-0.06129,-0.0048,,
4.25,-0.06108,-0.00493,,
4.251,-0.06132,-0.00513,,
4.252,-0.06179,-0.00538,,
4.253,-0.06232,-0.00566,,
4.254,-0.06265,-0.00596,,
4.255,-0.06286,-0.00626,,
4.256,-0.06274,-0.00653,,
4.257,-0.06217,-0.00676,,
4.258,-0.06107,-0.00693,,
4.259,-0.05932,-0.00703,,
4.26,-0.05708,-0.00707,,
4.261,-0.05424,-0.00703,,
4.262,-0.0508,-0.00694,,
4.263,-0.04673,-0.0068,,
4.264,-0.04201,-0.00662,,
4.265,-0.03681,-0.00643,,
4.266,-0.03113,-0.00624,,
4.267,-0.02501,-0.00606,,
4.268,-0.01853,-0.0059,,
4.269,-0.01173,-0.00577,,
4.27,-0.00484,-0.00568,,
4.271,0.00205,-0.00562,,
4.272,0.00881,-0.00561,,
4.273,0.01532,-0.00562,,
4.274,0.02143,-0.00563,,
4.275,0.02689,-0.00566,,
4.276,0.03165,-0.00566,,
4.277,0.03559,-0.00563,,
4.278,0.03866,-0.00555,,
4.279,0.04081,-0.00539,,
4.28,0.04194,-0.00514,,
4.281,0.04216,-0.00477,,
4.282,0.04158,-0.00429,,
4.283,0.04031,-0.00367,,
4.284,0.03854,-0.00292,,
4.285,0.03634,-0.00206,,
4.286,0.034,-0.0011,,
4.287,0.03173,-4.69E-05,,
4.288,0.02972,0.00105,,
4.289,0.02819,0.00217,,
4.29,0.02717,0.00325,,
4.291,0.02684,0.00425,,
4.292,0.02725,0.00516,,
4.293,0.02843,0.00591,,
4.294,0.03032,0.00649,,
4.295,0.03279,0.00685,,
4.296,0.03572,0.007,,
4.297,0.03896,0.00694,,
4.298,0.04232,0.00667,,
4.299,0.04564,0.00622,,
4.3,0.0487,0.0056,,
4.301,0.05136,0.00487,,
4.302,0.0535,0.00405,,
4.303,0.05505,0.0032,,
4.304,0.056,0.00235,,
4.305,0.05634,0.00156,,
4.306,0.05617,8.54E-04,,
4.307,0.05558,2.73E-04,,
4.308,0.05472,-1.58E-04,,
4.309,0.05375,-4.21E-04,,
4.31,0.05282,-5.08E-04,,
4.311,0.05211,-4.14E-04,,
4.312,0.05174,-1.46E-04,,
4.313,0.05182,2.84E-04,,
4.314,0.05239,8.50E-04,,
4.315,0.05344,0.00153,,
4.316,0.05497,0.00228,,
4.317,0.05689,0.00307,,
4.318,0.05908,0.00385,,
4.319,0.06135,0.00458,,
4.32,0.06355,0.00521,,
4.321,0.06552,0.00571,,
4.322,0.06711,0.00604,,
4.323,0.06817,0.00617,,
4.324,0.06855,0.00608,,
4.325,0.0682,0.00578,,
4.326,0.06713,0.00528,,
4.327,0.06534,0.0046,,
4.328,0.06288,0.00378,,
4.329,0.05983,0.00287,,
4.33,0.05634,0.00192,,
4.331,0.05253,0.00101,,
4.332,0.04856,1.81E-04,,
4.333,0.04456,-5.03E-04,,
4.334,0.04067,-0.001,,
4.335,0.03698,-0.00128,,
4.336,0.03357,-0.00133,,
4.337,0.03048,-0.00116,,
4.338,0.02775,-7.92E-04,,
4.339,0.02541,-2.63E-04,,
4.34,0.02343,3.69E-04,,
4.341,0.02176,0.00104,,
4.342,0.02036,0.00168,,
4.343,0.01923,0.00223,,
4.344,0.01842,0.00264,,
4.345,0.01792,0.00286,,
4.346,0.01774,0.00288,,
4.347,0.01793,0.00269,,
4.348,0.01857,0.0023,,
4.349,0.01977,0.00175,,
4.35,0.02163,0.0011,,
4.351,0.02419,4.02E-04,,
4.352,0.0275,-2.80E-04,,
4.353,0.03158,-8.82E-04,,
4.354,0.03642,-0.00134,,
4.355,0.04196,-0.00162,,
4.356,0.04807,-0.00169,,
4.357,0.05458,-0.00153,,
4.358,0.06128,-0.00116,,
4.359,0.06787,-5.99E-04,,
4.36,0.07407,1.09E-04,,
4.361,0.0796,9.12E-04,,
4.362,0.08419,0.00175,,
4.363,0.08757,0.00257,,
4.364,0.08951,0.00332,,
4.365,0.08983,0.00395,,
4.366,0.0885,0.00441,,
4.367,0.08556,0.00469,,
4.368,0.08111,0.00478,,
4.369,0.07533,0.00469,,
4.37,0.06846,0.00445,,
4.371,0.06091,0.00408,,
4.372,0.05307,0.00363,,
4.373,0.04533,0.00313,,
4.374,0.03813,0.00266,,
4.375,0.03184,0.00223,,
4.376,0.02681,0.00191,,
4.377,0.02329,0.00172,,
4.378,0.02146,0.00169,,
4.379,0.0214,0.00185,,
4.38,0.02306,0.00218,,
4.381,0.02629,0.0027,,
4.382,0.03084,0.00338,,
4.383,0.03643,0.00421,,
4.384,0.04265,0.00515,,
4.385,0.04914,0.00616,,
4.386,0.05546,0.00719,,
4.387,0.06122,0.00822,,
4.388,0.06609,0.00918,,
4.389,0.06979,0.01002,,
4.39,0.07215,0.01071,,
4.391,0.07307,0.01121,,
4.392,0.07254,0.0115,,
4.393,0.07067,0.01156,,
4.394,0.06759,0.01136,,
4.395,0.0636,0.01092,,
4.396,0.05897,0.01025,,
4.397,0.05402,0.00938,,
4.398,0.04905,0.00834,,
4.399,0.04433,0.00716,,
4.4,0.04014,0.0059,,
4.401,0.03668,0.00461,,
4.402,0.03408,0.00332,,
4.403,0.03241,0.00209,,
4.404,0.03165,9.56E-04,,
4.405,0.03172,-4.96E-05,,
4.406,0.03252,-8.98E-04,,
4.407,0.03387,-0.00157,,
4.408,0.03558,-0.00207,,
4.409,0.03743,-0.00238,,
4.41,0.03924,-0.0025,,
4.411,0.0408,-0.00246,,
4.412,0.04196,-0.00226,,
4.413,0.04263,-0.00193,,
4.414,0.0427,-0.0015,,
4.415,0.04219,-9.84E-04,,
4.416,0.04109,-4.10E-04,,
4.417,0.03945,1.85E-04,,
4.418,0.03735,7.72E-04,,
4.419,0.03493,0.00131,,
4.42,0.03233,0.0018,,
4.421,0.02967,0.00219,,
4.422,0.02707,0.00246,,
4.423,0.02466,0.00259,,
4.424,0.02256,0.00255,,
4.425,0.02089,0.00236,,
4.426,0.01969,0.00201,,
4.427,0.01902,0.0015,,
4.428,0.0189,8.60E-04,,
4.429,0.01933,1.05E-04,,
4.43,0.02031,-7.31E-04,,
4.431,0.02178,-0.00161,,
4.432,0.02368,-0.0025,,
4.433,0.02596,-0.00336,,
4.434,0.02852,-0.00414,,
4.435,0.03125,-0.00483,,
4.436,0.03403,-0.0054,,
4.437,0.03674,-0.00585,,
4.438,0.03927,-0.00615,,
4.439,0.04152,-0.0063,,
4.44,0.04334,-0.00632,,
4.441,0.04464,-0.00622,,
4.442,0.04534,-0.00602,,
4.443,0.04538,-0.00572,,
4.444,0.04479,-0.00534,,
4.445,0.04354,-0.00488,,
4.446,0.04171,-0.00435,,
4.447,0.0394,-0.00374,,
4.448,0.03676,-0.00307,,
4.449,0.034,-0.00231,,
4.45,0.03128,-0.00146,,
4.451,0.02885,-5.28E-04,,
4.452,0.02694,4.89E-04,,
4.453,0.02573,0.00158,,
4.454,0.02543,0.0027,,
4.455,0.02613,0.00384,,
4.456,0.02792,0.00496,,
4.457,0.03079,0.00601,,
4.458,0.03469,0.00693,,
4.459,0.03944,0.00767,,
4.46,0.04481,0.00818,,
4.461,0.05052,0.00843,,
4.462,0.05626,0.0084,,
4.463,0.06169,0.00806,,
4.464,0.06647,0.00742,,
4.465,0.07025,0.00648,,
4.466,0.0728,0.0053,,
4.467,0.07395,0.00393,,
4.468,0.07358,0.00242,,
4.469,0.07174,8.42E-04,,
4.47,0.06849,-7.41E-04,,
4.471,0.0641,-0.00226,,
4.472,0.05886,-0.00364,,
4.473,0.05313,-0.00485,,
4.474,0.04735,-0.00582,,
4.475,0.0419,-0.00654,,
4.476,0.03722,-0.00698,,
4.477,0.03365,-0.00716,,
4.478,0.03145,-0.00707,,
4.479,0.0308,-0.00673,,
4.48,0.03173,-0.00617,,
4.481,0.03419,-0.00542,,
4.482,0.03798,-0.00452,,
4.483,0.04284,-0.00352,,
4.484,0.04839,-0.00243,,
4.485,0.05422,-0.00131,,
4.486,0.0599,-1.91E-04,,
4.487,0.06501,8.91E-04,,
4.488,0.06921,0.0019,,
4.489,0.07218,0.00281,,
4.49,0.07377,0.00361,,
4.491,0.0739,0.00425,,
4.492,0.07261,0.00475,,
4.493,0.07007,0.00507,,
4.494,0.06648,0.00522,,
4.495,0.0622,0.00519,,
4.496,0.05759,0.00501,,
4.497,0.05301,0.00468,,
4.498,0.04879,0.00422,,
4.499,0.04524,0.00365,,
4.5,0.04256,0.00298,,
4.501,0.04086,0.00227,,
4.502,0.04017,0.00152,,
4.503,0.04042,7.62E-04,,
4.504,0.04146,1.18E-05,,
4.505,0.04302,-7.19E-04,,
4.506,0.04482,-0.00141,,
4.507,0.04659,-0.00207,,
4.508,0.04805,-0.00267,,
4.509,0.04904,-0.00322,,
4.51,0.04937,-0.00372,,
4.511,0.04899,-0.00416,,
4.512,0.04794,-0.00455,,
4.513,0.04636,-0.00488,,
4.514,0.04448,-0.00513,,
4.515,0.04261,-0.00531,,
4.516,0.04105,-0.00541,,
4.517,0.04014,-0.00542,,
4.518,0.04015,-0.00535,,
4.519,0.04128,-0.00517,,
4.52,0.04374,-0.0049,,
4.521,0.04753,-0.00454,,
4.522,0.05256,-0.0041,,
4.523,0.05861,-0.00361,,
4.524,0.0653,-0.00307,,
4.525,0.07222,-0.00251,,
4.526,0.0789,-0.00195,,
4.527,0.08485,-0.00141,,
4.528,0.08956,-9.09E-04,,
4.529,0.09254,-4.71E-04,,
4.53,0.09346,-1.01E-04,,
4.531,0.09212,1.95E-04,,
4.532,0.08847,4.14E-04,,
4.533,0.08256,5.56E-04,,
4.534,0.07461,6.18E-04,,
4.535,0.06501,6.06E-04,,
4.536,0.05429,5.28E-04,,
4.537,0.04303,3.87E-04,,
4.538,0.03181,1.85E-04,,
4.539,0.02124,-7.94E-05,,
4.54,0.01194,-4.09E-04,,
4.541,0.00435,-8.00E-04,,
4.542,-0.00118,-0.00125,,
4.543,-0.00446,-0.00176,,
4.544,-0.00543,-0.00233,,
4.545,-0.00418,-0.00293,,
4.546,-0.00103,-0.00357,,
4.547,0.00363,-0.00422,,
4.548,0.00931,-0.00485,,
4.549,0.01551,-0.00543,,
4.55,0.02169,-0.00594,,
4.551,0.02731,-0.00636,,
4.552,0.03192,-0.00665,,
4.553,0.03521,-0.0068,,
4.554,0.03697,-0.00678,,
4.555,0.03719,-0.0066,,
4.556,0.03591,-0.00627,,
4.557,0.03333,-0.00579,,
4.558,0.02975,-0.00518,,
4.559,0.02553,-0.00448,,
4.56,0.02118,-0.0037,,
4.561,0.0171,-0.00289,,
4.562,0.01366,-0.00208,,
4.563,0.01116,-0.0013,,
4.564,0.00981,-5.92E-04,,
4.565,0.00975,3.20E-05,,
4.566,0.01099,5.48E-04,,
4.567,0.01339,9.45E-04,,
4.568,0.0167,0.00121,,
4.569,0.02053,0.00136,,
4.57,0.02454,0.00137,,
4.571,0.02833,0.00127,,
4.572,0.0315,0.00108,,
4.573,0.03368,7.95E-04,,
4.574,0.03452,4.49E-04,,
4.575,0.03383,5.66E-05,,
4.576,0.03151,-3.51E-04,,
4.577,0.02756,-7.49E-04,,
4.578,0.0221,-0.00112,,
4.579,0.01532,-0.00144,,
4.58,0.00756,-0.00169,,
4.581,-8.61E-04,-0.00186,,
4.582,-0.00955,-0.00194,,
4.583,-0.01811,-0.00192,,
4.584,-0.02608,-0.00182,,
4.585,-0.03314,-0.00166,,
4.586,-0.03901,-0.00145,,
4.587,-0.0435,-0.00122,,
4.588,-0.04645,-0.00102,,
4.589,-0.04772,-8.78E-04,,
4.59,-0.04737,-8.29E-04,,
4.591,-0.04554,-9.09E-04,,
4.592,-0.0424,-0.00114,,
4.593,-0.0381,-0.00154,,
4.594,-0.0328,-0.00209,,
4.595,-0.02678,-0.00277,,
4.596,-0.02033,-0.00357,,
4.597,-0.01366,-0.00443,,
4.598,-0.00695,-0.0053,,
4.599,-2.96E-04,-0.00609,,
4.6,0.00614,-0.00675,,
4.601,0.01224,-0.00722,,
4.602,0.01795,-0.00744,,
4.603,0.02328,-0.00738,,
4.604,0.02828,-0.00698,,
4.605,0.03291,-0.00626,,
4.606,0.03723,-0.00524,,
4.607,0.04131,-0.00394,,
4.608,0.04516,-0.00242,,
4.609,0.04886,-7.62E-04,,
4.61,0.05233,9.69E-04,,
4.611,0.05564,0.00268,,
4.612,0.05881,0.0043,,
4.613,0.06179,0.00575,,
4.614,0.06456,0.00695,,
4.615,0.06696,0.00785,,
4.616,0.06901,0.00843,,
4.617,0.07071,0.00867,,
4.618,0.07197,0.00857,,
4.619,0.07278,0.00815,,
4.62,0.073,0.00743,,
4.621,0.07273,0.00648,,
4.622,0.072,0.00535,,
4.623,0.07085,0.00409,,
4.624,0.06934,0.00276,,
4.625,0.06751,0.00141,,
4.626,0.06551,9.86E-05,,
4.627,0.06347,-0.00112,,
4.628,0.0615,-0.00221,,
4.629,0.05971,-0.00314,,
4.63,0.0582,-0.00389,,
4.631,0.05706,-0.00445,,
4.632,0.05635,-0.00481,,
4.633,0.05611,-0.00497,,
4.634,0.05632,-0.00495,,
4.635,0.05692,-0.00475,,
4.636,0.05784,-0.00441,,
4.637,0.05897,-0.00396,,
4.638,0.06018,-0.00341,,
4.639,0.06133,-0.00281,,
4.64,0.06228,-0.00217,,
4.641,0.06288,-0.00154,,
4.642,0.06301,-9.46E-04,,
4.643,0.06261,-4.00E-04,,
4.644,0.06165,8.96E-05,,
4.645,0.06015,5.15E-04,,
4.646,0.05816,8.74E-04,,
4.647,0.05581,0.00117,,
4.648,0.05324,0.00142,,
4.649,0.05067,0.00165,,
4.65,0.04831,0.00187,,
4.651,0.04637,0.0021,,
4.652,0.04504,0.00236,,
4.653,0.04451,0.00267,,
4.654,0.04491,0.00303,,
4.655,0.04628,0.00343,,
4.656,0.0486,0.00388,,
4.657,0.05178,0.00436,,
4.658,0.05568,0.00485,,
4.659,0.06011,0.00534,,
4.66,0.06477,0.00579,,
4.661,0.06935,0.00619,,
4.662,0.07356,0.00651,,
4.663,0.07714,0.00676,,
4.664,0.07987,0.0069,,
4.665,0.08154,0.00694,,
4.666,0.08209,0.00688,,
4.667,0.08152,0.00674,,
4.668,0.07993,0.00652,,
4.669,0.07753,0.00625,,
4.67,0.07457,0.00593,,
4.671,0.07136,0.0056,,
4.672,0.06828,0.00528,,
4.673,0.06568,0.00497,,
4.674,0.06393,0.00469,,
4.675,0.06322,0.00446,,
4.676,0.06374,0.00429,,
4.677,0.06556,0.00417,,
4.678,0.06865,0.0041,,
4.679,0.07294,0.00409,,
4.68,0.07808,0.00413,,
4.681,0.08378,0.00422,,
4.682,0.08965,0.00433,,
4.683,0.09531,0.00446,,
4.684,0.1004,0.0046,,
4.685,0.10465,0.00472,,
4.686,0.10791,0.00483,,
4.687,0.11011,0.00489,,
4.688,0.11122,0.00491,,
4.689,0.1112,0.00485,,
4.69,0.11065,0.00472,,
4.691,0.11003,0.00452,,
4.692,0.1098,0.00425,,
4.693,0.11022,0.00392,,
4.694,0.1111,0.00352,,
4.695,0.11332,0.00309,,
4.696,0.11695,0.00265,,
4.697,0.12194,0.00222,,
4.698,0.1277,0.00181,,
4.699,0.13287,0.00144,,
4.7,0.13729,0.00112,,
4.701,0.13986,8.58E-04,,
4.702,0.13943,6.45E-04,,
4.703,0.13454,4.60E-04,,
4.704,0.12328,2.63E-04,,
4.705,0.10507,3.54E-05,,
4.706,0.07884,-2.66E-04,,
4.707,0.04396,-6.81E-04,,
4.708,8.87E-05,-0.00125,,
4.709,-0.0528,-0.002,,
4.71,-0.11366,-0.00295,,
4.711,-0.1815,-0.00411,,
4.712,-0.2548,-0.00546,,
4.713,-0.33145,-0.00697,,
4.714,-0.40871,-0.0086,,
4.715,-0.48377,-0.01028,,
4.716,-0.55427,-0.01195,,
4.717,-0.61774,-0.01354,,
4.718,-0.67153,-0.01497,,
4.719,-0.71284,-0.01617,,
4.72,-0.73986,-0.01707,,
4.721,-0.75199,-0.01764,,
4.722,-0.74893,-0.01786,,
4.723,-0.73052,-0.01772,,
4.724,-0.69691,-0.01721,,
4.725,-0.64946,-0.01636,,
4.726,-0.5907,-0.01523,,
4.727,-0.52313,-0.01388,,
4.728,-0.44916,-0.01236,,
4.729,-0.37122,-0.01072,,
4.73,-0.29228,-0.00902,,
4.731,-0.21541,-0.00733,,
4.732,-0.1431,-0.00569,,
4.733,-0.07729,-0.00414,,
4.734,-0.01946,-0.00269,,
4.735,0.02896,-0.00137,,
4.736,0.06755,-1.90E-04,,
4.737,0.0963,8.47E-04,,
4.738,0.11563,0.00174,,
4.739,0.12648,0.0025,,
4.74,0.12946,0.00311,,
4.741,0.12658,0.00358,,
4.742,0.11947,0.00393,,
4.743,0.1096,0.00414,,
4.744,0.09845,0.00423,,
4.745,0.08663,0.00418,,
4.746,0.07591,0.00401,,
4.747,0.06726,0.00374,,
4.748,0.06106,0.00338,,
4.749,0.05752,0.00295,,
4.75,0.05596,0.00245,,
4.751,0.05664,0.00194,,
4.752,0.05925,0.00144,,
4.753,0.06318,9.90E-04,,
4.754,0.06774,6.09E-04,,
4.755,0.07202,3.15E-04,,
4.756,0.07565,1.32E-04,,
4.757,0.07828,7.31E-05,,
4.758,0.07959,1.44E-04,,
4.759,0.07932,3.44E-04,,
4.76,0.0774,6.54E-04,,
4.761,0.07391,0.00106,,
4.762,0.06906,0.00153,,
4.763,0.06315,0.00205,,
4.764,0.05654,0.00258,,
4.765,0.04967,0.00311,,
4.766,0.04282,0.0036,,
4.767,0.03631,0.00404,,
4.768,0.03043,0.00441,,
4.769,0.02544,0.0047,,
4.77,0.02155,0.0049,,
4.771,0.0188,0.00503,,
4.772,0.0172,0.0051,,
4.773,0.01672,0.00511,,
4.774,0.01735,0.00507,,
4.775,0.01897,0.00501,,
4.776,0.02147,0.00496,,
4.777,0.02471,0.00492,,
4.778,0.02857,0.00492,,
4.779,0.03292,0.00495,,
4.78,0.03765,0.00502,,
4.781,0.0426,0.00512,,
4.782,0.04763,0.00525,,
4.783,0.05262,0.0054,,
4.784,0.0574,0.00552,,
4.785,0.06187,0.0056,,
4.786,0.06584,0.0056,,
4.787,0.06918,0.00549,,
4.788,0.07175,0.00525,,
4.789,0.07341,0.00487,,
4.79,0.07409,0.00432,,
4.791,0.07376,0.00362,,
4.792,0.07244,0.00278,,
4.793,0.07014,0.00183,,
4.794,0.06693,8.29E-04,,
4.795,0.06297,-1.75E-04,,
4.796,0.05849,-0.00112,,
4.797,0.05372,-0.00193,,
4.798,0.04886,-0.00255,,
4.799,0.0441,-0.00291,,
4.8,0.0397,-0.00297,,
4.801,0.03583,-0.00271,,
4.802,0.03265,-0.00211,,
4.803,0.03021,-0.0012,,
4.804,0.02851,-1.51E-05,,
4.805,0.02754,0.00139,,
4.806,0.02717,0.00293,,
4.807,0.02725,0.00451,,
4.808,0.02759,0.00605,,
4.809,0.02799,0.00745,,
4.81,0.02827,0.00862,,
4.811,0.02825,0.00951,,
4.812,0.02776,0.01006,,
4.813,0.02673,0.01026,,
4.814,0.0251,0.01012,,
4.815,0.02297,0.00966,,
4.816,0.02038,0.00895,,
4.817,0.01745,0.00806,,
4.818,0.01438,0.00707,,
4.819,0.01134,0.00608,,
4.82,0.00859,0.00517,,
4.821,0.00628,0.00441,,
4.822,0.00454,0.00388,,
4.823,0.00348,0.00361,,
4.824,0.00315,0.00363,,
4.825,0.00359,0.00391,,
4.826,0.00468,0.00444,,
4.827,0.0063,0.00517,,
4.828,0.0083,0.00604,,
4.829,0.01047,0.00698,,
4.83,0.01265,0.00792,,
4.831,0.01465,0.00878,,
4.832,0.01631,0.00951,,
4.833,0.0175,0.01006,,
4.834,0.01813,0.0104,,
4.835,0.01822,0.0105,,
4.836,0.0178,0.01038,,
4.837,0.01698,0.01006,,
4.838,0.01584,0.00956,,
4.839,0.01448,0.00893,,
4.84,0.01309,0.00823,,
4.841,0.01179,0.00752,,
4.842,0.01067,0.00685,,
4.843,0.00977,0.00627,,
4.844,0.00905,0.00583,,
4.845,0.00849,0.00556,,
4.846,0.00799,0.00548,,
4.847,0.00742,0.0056,,
4.848,0.00659,0.00589,,
4.849,0.00533,0.00633,,
4.85,0.00351,0.00689,,
