time,mixed,reconstructed,ground_truth
0.0010000000474974513,0.0021299999207258224,0.032677121460437775,-0.09301000088453293
0.0020000000949949026,0.0030900000128895044,0.03325618430972099,-0.09442999958992004
0.003000000026077032,0.0041600000113248825,0.03357879817485809,-0.09630999714136124
0.004000000189989805,0.005309999920427799,0.03377646580338478,-0.09860000014305115
0.004999999888241291,0.0065299998968839645,0.03579502925276756,-0.10118000209331512
0.006000000052154064,0.007790000177919865,0.037180814892053604,-0.1039699986577034
0.007000000216066837,0.009039999917149544,0.03922785446047783,-0.10690999776124954
0.00800000037997961,0.010250000283122063,0.041004717350006104,-0.10993000119924545
0.008999999612569809,0.01133000012487173,0.0434398390352726,-0.11292000114917755
0.009999999776482582,0.012230000458657742,0.045466579496860504,-0.11588999629020691
0.010999999940395355,0.012910000048577785,0.04797275736927986,-0.11879000067710876
0.012000000104308128,0.01331000030040741,0.04979190230369568,-0.12159000337123871
0.013000000268220901,0.013389999978244305,0.051761217415332794,-0.12424000352621078
0.014000000432133675,0.01310999970883131,0.05283017456531525,-0.12661999464035034
0.014999999664723873,0.012450000271201134,0.05440102517604828,-0.12873999774456024
0.01600000075995922,0.01143999956548214,0.05469965934753418,-0.1305299997329712
0.017000000923871994,0.010089999996125698,0.055447015911340714,-0.13190999627113342
0.017999999225139618,0.008440000005066395,0.055107079446315765,-0.13278000056743622
0.01899999938905239,0.006539999973028898,0.05589699000120163,-0.13297000527381897
0.019999999552965164,0.004459999967366457,0.055162522941827774,-0.13242000341415405
0.020999999716877937,0.0022799998987466097,0.05409349128603935,-0.13106000423431396
0.02199999988079071,6.469999789260328e-05,0.05266699567437172,-0.12883000075817108
0.023000000044703484,-0.002099999925121665,0.05156360939145088,-0.1256600022315979
0.024000000208616257,-0.004129999782890081,0.05040771886706352,-0.1214900016784668
0.02500000037252903,-0.005960000213235617,0.048948563635349274,-0.11638999730348587
0.026000000536441803,-0.007550000213086605,0.046904485672712326,-0.11044999957084656
0.027000000700354576,-0.008849999867379665,0.045435287058353424,-0.10380999743938446
0.02800000086426735,-0.009820000268518925,0.04395262524485588,-0.09661000221967697
0.028999999165534973,-0.010440000332891941,0.04308317229151726,-0.08902999758720398
0.029999999329447746,-0.010700000450015068,0.042105160653591156,-0.08137000352144241
0.03099999949336052,-0.010619999840855598,0.041710760444402695,-0.07387000322341919
0.03200000151991844,-0.010219999589025974,0.0415131114423275,-0.06678000092506409
0.032999999821186066,-0.009519999846816063,0.04151240736246109,-0.060339998453855515
0.03400000184774399,-0.008569999597966671,0.04234733060002327,-0.05471999943256378
0.03500000014901161,-0.007379999849945307,0.043470002710819244,-0.050200000405311584
0.035999998450279236,-0.006029999814927578,0.04352331906557083,-0.046799998730421066
0.03700000047683716,-0.004579999949783087,0.04455571621656418,-0.04458000138401985
0.03799999877810478,-0.003060000017285347,0.04571251943707466,-0.04351000115275383
0.039000000804662704,-0.001550000044517219,0.04714001715183258,-0.043480001389980316
0.03999999910593033,-6.589999975403771e-05,0.04849003627896309,-0.04442000016570091
0.04100000113248825,0.0013200000394135714,0.05006106570363045,-0.04608000069856644
0.041999999433755875,0.002570000011473894,0.05083904042840004,-0.048179998993873596
0.0430000014603138,0.003659999929368496,0.0518435575067997,-0.05048000067472458
0.04399999976158142,0.004559999797493219,0.05285707861185074,-0.052730001509189606
0.04500000178813934,0.005260000005364418,0.053543299436569214,-0.054760001599788666
0.04600000008940697,0.005750000011175871,0.05380856245756149,-0.05631000176072121
0.04699999839067459,0.006049999967217445,0.05379290506243706,-0.05722999945282936
0.04800000041723251,0.006169999949634075,0.053246159106492996,-0.05741000175476074
0.04899999871850014,0.006120000034570694,0.05273812636733055,-0.05683000013232231
0.05000000074505806,0.005929999984800816,0.05127759277820587,-0.05559999868273735
0.050999999046325684,0.005630000028759241,0.05011492967605591,-0.053780000656843185
0.052000001072883606,0.005249999929219484,0.04921860247850418,-0.051500000059604645
0.05299999937415123,0.00482999999076128,0.047685038298368454,-0.04893999919295311
0.05400000140070915,0.004370000213384628,0.04591717571020126,-0.04628000035881996
0.054999999701976776,0.0038999998942017555,0.044049784541130066,-0.04377000033855438
0.0560000017285347,0.00343000004068017,0.04254044219851494,-0.041600000113248825
0.05700000002980232,0.0029700000304728746,0.04115855693817139,-0.039889998733997345
0.057999998331069946,0.0025500000920146704,0.039669159799814224,-0.038750000298023224
0.05900000035762787,0.00215000007301569,0.03838605061173439,-0.03819999843835831
0.05999999865889549,0.0017800000496208668,0.0372169204056263,-0.038270000368356705
0.061000000685453415,0.0014400000218302011,0.03643086552619934,-0.03889000043272972
0.06199999898672104,0.0011500000255182385,0.035826969891786575,-0.03994999825954437
0.06300000101327896,0.0008980000275187194,0.03524366766214371,-0.041280001401901245
0.06400000303983688,0.0007099999929778278,0.03464468941092491,-0.042649999260902405
0.06499999761581421,0.000590000010561198,0.034345705062150955,-0.04391000047326088
0.06599999964237213,0.0005520000122487545,0.03414009138941765,-0.04481999948620796
0.06700000166893005,0.0006060000159777701,0.03406354784965515,-0.04521999880671501
0.06800000369548798,0.00076299998909235,0.03399389982223511,-0.04493999853730202
0.0689999982714653,0.0010300000431016088,0.03391006961464882,-0.043880000710487366
0.07000000029802322,0.00139999995008111,0.0339445136487484,-0.04197999835014343
0.07100000232458115,0.0018599999602884054,0.03421620652079582,-0.039250001311302185
0.07199999690055847,0.002409999957308173,0.034197937697172165,-0.035739999264478683
0.0729999989271164,0.003000000026077032,0.03442545235157013,-0.03156000003218651
0.07400000095367432,0.0036200000904500484,0.03432604297995567,-0.026890000328421593
0.07500000298023224,0.004230000078678131,0.034252624958753586,-0.021970000118017197
0.07599999755620956,0.0047900001518428326,0.0339808389544487,-0.016990000382065773
0.07699999958276749,0.005260000005364418,0.033718060702085495,-0.012199999764561653
0.07800000160932541,0.005609999876469374,0.033412616699934006,-0.007819999940693378
0.07900000363588333,0.005810000002384186,0.03290469944477081,-0.004110000096261501
0.07999999821186066,0.005840000230818987,0.03233741968870163,-0.001290000043809414
0.08100000023841858,0.00570000009611249,0.03196196258068085,0.0004910000134259462
0.0820000022649765,0.0053900000639259815,0.03140445053577423,0.0011500000255182385
0.08299999684095383,0.0049299998208880424,0.030977994203567505,0.0006230000290088356
0.08399999886751175,0.00431999983265996,0.03032153658568859,-0.00107999995816499
0.08500000089406967,0.0036200000904500484,0.029886825010180473,-0.003930000122636557
0.0860000029206276,0.002839999971911311,0.02920682169497013,-0.007790000177919865
0.08699999749660492,0.00203999993391335,0.02850428596138954,-0.012500000186264515
0.08799999952316284,0.0012499999720603228,0.027693813666701317,-0.017839999869465828
0.08900000154972076,0.0005089999758638442,0.026921799406409264,-0.023509999737143517
0.09000000357627869,-0.00015500000154133886,0.026313867419958115,-0.02928999997675419
0.09099999815225601,-0.0007169999880716205,0.0255292858928442,-0.034860000014305115
0.09200000017881393,-0.0011599999852478504,0.024662379175424576,-0.03994999825954437
0.09300000220537186,-0.0014700000174343586,0.02382502146065235,-0.044280000030994415
0.09399999678134918,-0.0016599999507889152,0.023249709978699684,-0.04757000133395195
0.0949999988079071,-0.0017099999822676182,0.022527655586600304,-0.049630001187324524
0.09600000083446503,-0.0016499999910593033,0.021923936903476715,-0.05031000077724457
0.09700000286102295,-0.0014900000533089042,0.02146439626812935,-0.0494999997317791
0.09799999743700027,-0.0012499999720603228,0.020975040271878242,-0.04718000069260597
0.0989999994635582,-0.0009330000029876828,0.020564373582601547,-0.04340000078082085
0.10000000149011612,-0.0005709999823011458,0.02020908333361149,-0.03826000168919563
0.10100000351667404,-0.00018600000475998968,0.019977392628788948,-0.031980000436306
0.10199999809265137,0.00020500000391621143,0.019724041223526,-0.024809999391436577
0.10300000011920929,0.0005849999724887311,0.01975160278379917,-0.0170499999076128
0.10400000214576721,0.0009449999779462814,0.01984981819987297,-0.009100000374019146
0.10499999672174454,0.0012700000079348683,0.020193813368678093,-0.0013099999632686377
0.10599999874830246,0.001550000044517219,0.02038266323506832,0.005900000222027302
0.10700000077486038,0.001769999973475933,0.02092931605875492,0.012160000391304493
0.1080000028014183,0.001930000027641654,0.021466093137860298,0.017149999737739563
0.10899999737739563,0.00203999993391335,0.022203870117664337,0.02054000087082386
0.10999999940395355,0.002099999925121665,0.02292228490114212,0.022140000015497208
0.11100000143051147,0.0021299999207258224,0.02372957207262516,0.02184000052511692
0.1120000034570694,0.002139999996870756,0.02449825406074524,0.01962999999523163
0.11299999803304672,0.00215000007301569,0.02531585469841957,0.01558000035583973
0.11400000005960464,0.0021800000686198473,0.02607571706175804,0.009909999556839466
0.11500000208616257,0.002259999979287386,0.027114657685160637,0.0028899998869746923
0.11599999666213989,0.002400000113993883,0.02777162380516529,-0.005049999803304672
0.11699999868869781,0.002630000002682209,0.028475603088736534,-0.01348000019788742
0.11800000071525574,0.002959999954327941,0.029189515858888626,-0.021929999813437462
0.11900000274181366,0.003379999892786145,0.029986955225467682,-0.029899999499320984
0.11999999731779099,0.0038799999747425318,0.030471377074718475,-0.03691999986767769
0.12099999934434891,0.004459999967366457,0.030596472322940826,-0.04255999997258186
0.12200000137090683,0.005080000031739473,0.030990468338131905,-0.046470001339912415
0.12300000339746475,0.00571999978274107,0.03138431906700134,-0.04843999817967415
0.12399999797344208,0.006320000160485506,0.031782299280166626,-0.04836000129580498
0.125,0.006829999852925539,0.03205549716949463,-0.04623999819159508
0.12600000202655792,0.0072200000286102295,0.03232749179005623,-0.04225999861955643
0.12700000405311584,0.007439999841153622,0.032511260360479355,-0.03669999912381172
0.12800000607967377,0.007459999993443489,0.03261282294988632,-0.029929999262094498
0.1289999932050705,0.007249999791383743,0.03274304419755936,-0.022450000047683716
0.12999999523162842,0.006779999937862158,0.03294868767261505,-0.014770000241696835
0.13099999725818634,0.0060800001956522465,0.03295063227415085,-0.007459999993443489
0.13199999928474426,0.005150000099092722,0.03274111449718475,-0.0010300000431016088
0.13300000131130219,0.004019999876618385,0.032925158739089966,0.004050000105053186
0.1340000033378601,0.002730000065639615,0.03294533118605614,0.007430000230669975
0.13500000536441803,0.0013500000350177288,0.03287559375166893,0.008860000409185886
0.13600000739097595,-8.489999891025946e-05,0.032856784760951996,0.008229999803006649
0.13699999451637268,-0.001500000013038516,0.033093132078647614,0.00558000011369586
0.1379999965429306,-0.002839999971911311,0.033211708068847656,0.0010900000343099236
0.13899999856948853,-0.004040000028908253,0.033297259360551834,-0.004939999897032976
0.14000000059604645,-0.005059999879449606,0.03327212482690811,-0.012040000408887863
0.14100000262260437,-0.005859999917447567,0.033316172659397125,-0.019710000604391098
0.1420000046491623,-0.0064199999906122684,0.03309781104326248,-0.027400000020861626
0.14300000667572021,-0.006730000022798777,0.032840993255376816,-0.03460000082850456
0.14399999380111694,-0.006779999937862158,0.03248006850481033,-0.040789999067783356
0.14499999582767487,-0.006579999811947346,0.03227807581424713,-0.04552999883890152
0.1459999978542328,-0.0061599998734891415,0.0314658023416996,-0.048510000109672546
0.1469999998807907,-0.005549999885261059,0.031179670244455338,-0.049559999257326126
0.14800000190734863,-0.004800000227987766,0.03085351549088955,-0.048650000244379044
0.14900000393390656,-0.00394000019878149,0.03024482913315296,-0.045910000801086426
0.15000000596046448,-0.003010000102221966,0.029219016432762146,-0.04159000143408775
0.1509999930858612,-0.0020600000862032175,0.02819802053272724,-0.036079999059438705
0.15199999511241913,-0.0011599999852478504,0.02740393579006195,-0.029850000515580177
0.15299999713897705,-0.0003239999932702631,0.025752633810043335,-0.02339000068604946
0.15399999916553497,0.0003969999961555004,0.024020809680223465,-0.017249999567866325
0.1550000011920929,0.0009800000116229057,0.02190287411212921,-0.011909999884665012
0.15600000321865082,0.00139999995008111,0.019693855196237564,-0.007819999940693378
0.15700000524520874,0.0016299999551847577,0.017497636377811432,-0.0052999998442828655
0.15800000727176666,0.0016700000269338489,0.014743780717253685,-0.004530000034719706
0.1589999943971634,0.0015300000086426735,0.01195535808801651,-0.005590000189840794
0.1599999964237213,0.001230000052601099,0.00897072535008192,-0.008369999937713146
0.16099999845027924,0.0007859999896027148,0.006052067503333092,-0.012659999541938305
0.16200000047683716,0.00023200000578071922,0.0027349700685590506,-0.018139999359846115
0.16300000250339508,-0.00039000000106170774,-0.00041201236308552325,-0.024390000849962234
0.164000004529953,-0.0010300000431016088,-0.004002935253083706,-0.030969999730587006
0.16500000655651093,-0.0016599999507889152,-0.007084553129971027,-0.03734999895095825
0.16599999368190765,-0.0022100000642240047,-0.010295718908309937,-0.04309999942779541
0.16699999570846558,-0.0026599999982863665,-0.013699193485081196,-0.0478300005197525
0.1679999977350235,-0.0029700000304728746,-0.017050128430128098,-0.051270000636577606
0.16899999976158142,-0.003100000089034438,-0.0200571957975626,-0.053210001438856125
0.17000000178813934,-0.003060000017285347,-0.022758901119232178,-0.053599998354911804
0.17100000381469727,-0.002850000048056245,-0.025768619030714035,-0.05251000076532364
0.1720000058412552,-0.002469999948516488,-0.02823943831026554,-0.05012999847531319
0.17299999296665192,-0.0019600000232458115,-0.03051934577524662,-0.04675000160932541
0.17399999499320984,-0.0013299999991431832,-0.0324380062520504,-0.0427200011909008
0.17499999701976776,-0.0006339999963529408,-0.033948056399822235,-0.03846000134944916
0.17599999904632568,8.450000314041972e-05,-0.03554182127118111,-0.034380000084638596
0.1770000010728836,0.0007880000048317015,-0.036592550575733185,-0.03084000013768673
0.17800000309944153,0.0014400000218302011,-0.03803125023841858,-0.02817000076174736
0.17900000512599945,0.0020000000949949026,-0.03912397846579552,-0.02662000060081482
0.18000000715255737,0.002460000105202198,-0.03975866362452507,-0.02630000002682209
0.1809999942779541,0.00279999990016222,-0.04047997668385506,-0.027240000665187836
0.18199999630451202,0.0030300000216811895,-0.0408199243247509,-0.029360000044107437
0.18299999833106995,0.0031399999279528856,-0.04142571613192558,-0.03249000012874603
0.18400000035762787,0.0031399999279528856,-0.041386403143405914,-0.03637000173330307
0.1850000023841858,0.003060000017285347,-0.04169581085443497,-0.04064999893307686
0.1860000044107437,0.0029200001154094934,-0.04154074564576149,-0.04498999938368797
0.18700000643730164,0.002749999985098839,-0.041548874229192734,-0.04907999932765961
0.18799999356269836,0.0025599999353289604,-0.041615791618824005,-0.052629999816417694
0.1889999955892563,0.0023499999660998583,-0.041482023894786835,-0.055390000343322754
0.1899999976158142,0.002139999996870756,-0.04147334396839142,-0.057190001010894775
0.19099999964237213,0.001930000027641654,-0.04143558442592621,-0.0579800009727478
0.19200000166893005,0.0017300000181421638,-0.041609298437833786,-0.05778999999165535
0.19300000369548798,0.0015200000489130616,-0.04153723642230034,-0.05674999952316284
0.1940000057220459,0.0012799999676644802,-0.041379861533641815,-0.055070001631975174
0.19499999284744263,0.0010000000474974513,-0.0416700541973114,-0.05299000069499016
0.19599999487400055,0.0006929999799467623,-0.0420423224568367,-0.05081000179052353
0.19699999690055847,0.00033400001120753586,-0.042424317449331284,-0.048829998821020126
0.1979999989271164,-7.439999899361283e-05,-0.04244406893849373,-0.04729999974370003
0.19900000095367432,-0.0005380000220611691,-0.04280165582895279,-0.046480000019073486
0.20000000298023224,-0.0010499999625608325,-0.043143074959516525,-0.046480000019073486
0.20100000500679016,-0.0015899999998509884,-0.04366254061460495,-0.0473800003528595
0.20200000703334808,-0.0021699999924749136,-0.04372268170118332,-0.049150001257658005
0.2029999941587448,-0.0027600000612437725,-0.0440291091799736,-0.05170999839901924
0.20399999618530273,-0.0033499998971819878,-0.04447948932647705,-0.05488000065088272
0.20499999821186066,-0.003920000046491623,-0.045019447803497314,-0.05838000029325485
0.20600000023841858,-0.004470000043511391,-0.04574456438422203,-0.06196000054478645
0.2070000022649765,-0.004989999812096357,-0.04639764875173569,-0.0653500035405159
0.20800000429153442,-0.00547999981790781,-0.04730142280459404,-0.06830000132322311
0.20900000631809235,-0.005919999908655882,-0.047969087958335876,-0.07058999687433243
0.20999999344348907,-0.006300000008195639,-0.04865388199687004,-0.07203999906778336
0.210999995470047,-0.006630000192672014,-0.04964101314544678,-0.07263000309467316
0.21199999749660492,-0.006889999844133854,-0.05017388239502907,-0.07237999886274338
0.21299999952316284,-0.007079999893903732,-0.050768062472343445,-0.07139000296592712
0.21400000154972076,-0.007189999800175428,-0.05111228674650192,-0.06978999823331833
0.2150000035762787,-0.007199999876320362,-0.05143246799707413,-0.06786999851465225
0.2160000056028366,-0.007110000122338533,-0.05141609534621239,-0.06589999794960022
0.21699999272823334,-0.006909999996423721,-0.051748499274253845,-0.0641700029373169
0.21799999475479126,-0.0065899998880922794,-0.0515047051012516,-0.0629199966788292
0.21899999678134918,-0.006149999797344208,-0.05133231729269028,-0.0622900016605854
0.2199999988079071,-0.005609999876469374,-0.051089685410261154,-0.06247999891638756
0.22100000083446503,-0.004980000201612711,-0.050754476338624954,-0.06351999938488007
0.22200000286102295,-0.004290000069886446,-0.05023316666483879,-0.06537999957799911
0.22300000488758087,-0.0035699999425560236,-0.04978989437222481,-0.06789000332355499
0.2240000069141388,-0.002859999891370535,-0.049138303846120834,-0.07072000205516815
0.22499999403953552,-0.0022100000642240047,-0.04869372025132179,-0.07363999634981155
0.22599999606609344,-0.0016599999507889152,-0.048133525997400284,-0.07626999914646149
0.22699999809265137,-0.0012499999720603228,-0.04749288782477379,-0.0782800018787384
0.2280000001192093,-0.0010300000431016088,-0.046612296253442764,-0.07927999645471573
0.2290000021457672,-0.0009919999865815043,-0.04603154584765434,-0.07890000194311142
0.23000000417232513,-0.0011699999449774623,-0.045620616525411606,-0.0769599974155426
0.23100000619888306,-0.001560000004246831,-0.04549134522676468,-0.07336000353097916
0.23199999332427979,-0.0021299999207258224,-0.04480058327317238,-0.06807000190019608
0.2329999953508377,-0.002850000048056245,-0.04417502507567406,-0.06120000034570694
0.23399999737739563,-0.003650000086054206,-0.0435902439057827,-0.05290000140666962
0.23499999940395355,-0.004490000195801258,-0.04258110746741295,-0.04357000067830086
0.23600000143051147,-0.005280000157654285,-0.04147202521562576,-0.03361000120639801
0.2370000034570694,-0.005960000213235617,-0.04011603444814682,-0.023429999127984047
0.23800000548362732,-0.006459999829530716,-0.038684118539094925,-0.013500000350177288
0.23899999260902405,-0.006709999870508909,-0.03691793605685234,-0.004230000078678131
0.23999999463558197,-0.006670000031590462,-0.034927185624837875,0.0038900000508874655
0.2409999966621399,-0.006300000008195639,-0.032616812735795975,0.01063000038266182
0.24199999868869781,-0.00559999980032444,-0.02983292192220688,0.015799999237060547
0.24300000071525574,-0.004569999873638153,-0.02674800716340542,0.019300000742077827
0.24400000274181366,-0.0032500000670552254,-0.023657966405153275,0.02112000063061714
0.24500000476837158,-0.0016899999463930726,-0.0204031802713871,0.02135000005364418
0.2460000067949295,3.989999822806567e-05,-0.0168461874127388,0.02029000036418438
0.24699999392032623,0.0018599999602884054,-0.013145764358341694,0.0182499997317791
0.24799999594688416,0.0036899999249726534,-0.009172850288450718,0.015560000203549862
0.24899999797344208,0.005410000216215849,-0.005389680620282888,0.012529999949038029
0.25,0.006949999835342169,-0.0014410590520128608,0.009429999627172947
0.25099998712539673,0.008229999803006649,0.0026319732423871756,0.0066200001165270805
0.25200000405311584,0.009170000441372395,0.006530323997139931,0.004310000222176313
0.2529999911785126,0.009720000438392162,0.010202393867075443,0.0026100000832229853
0.2540000081062317,0.009850000031292439,0.013701165094971657,0.001560000004246831
0.2549999952316284,0.009549999609589577,0.01705104112625122,0.0010100000072270632
0.25600001215934753,0.008840000256896019,0.020420225337147713,0.0008929999894462526
0.25699999928474426,0.0077599999494850636,0.023387689143419266,0.001019999966956675
0.257999986410141,0.0063599999994039536,0.025871753692626953,0.0011899999808520079
0.2590000033378601,0.004730000160634518,0.02796199545264244,0.0011699999449774623
0.25999999046325684,0.002940000034868717,0.030118362978100777,0.0007179999956861138
0.26100000739097595,0.0011099999537691474,0.03230009600520134,-0.0003020000003743917
0.2619999945163727,-0.0006639999919570982,0.03390425816178322,-0.0019600000232458115
0.2630000114440918,-0.0022899999748915434,0.03496645763516426,-0.004259999841451645
0.2639999985694885,-0.0036800000816583633,0.03594495356082916,-0.007089999970048666
0.26499998569488525,-0.0047599999234080315,0.03669500723481178,-0.010280000045895576
0.26600000262260437,-0.005489999894052744,0.037302978336811066,-0.013620000332593918
0.2669999897480011,-0.005830000154674053,0.03781764581799507,-0.01679999940097332
0.2680000066757202,-0.005789999850094318,0.0382235012948513,-0.019519999623298645
0.26899999380111694,-0.005400000140070915,0.03861299157142639,-0.02143000066280365
0.27000001072883606,-0.004689999856054783,0.03901436924934387,-0.02225000038743019
0.2709999978542328,-0.0037400000728666782,0.038969747722148895,-0.021800000220537186
0.2720000147819519,-0.0026400000788271427,0.038432080298662186,-0.01996999979019165
0.27300000190734863,-0.0014700000174343586,0.03781517967581749,-0.01671000011265278
0.27399998903274536,-0.0003209999995306134,0.037001874297857285,-0.01209999993443489
0.2750000059604645,0.0007259999983943999,0.03637637197971344,-0.006339999847114086
0.2759999930858612,0.0015899999998509884,0.03557867184281349,0.0002640000020619482
0.2770000100135803,0.0022299999836832285,0.03483438119292259,0.007329999934881926
0.27799999713897705,0.0026000000070780516,0.033952247351408005,0.014469999819993973
0.27900001406669617,0.0027099999133497477,0.0330541655421257,0.02126000076532364
0.2800000011920929,0.002580000087618828,0.031950876116752625,0.027249999344348907
0.2809999883174896,0.002240000059828162,0.031161362305283546,0.03207999840378761
0.28200000524520874,0.0017500000540167093,0.03036387637257576,0.03548000007867813
0.28299999237060547,0.0011899999808520079,0.02946959063410759,0.037289999425411224
0.2840000092983246,0.0006220000213943422,0.028750218451023102,0.037450000643730164
0.2849999964237213,0.00013000000035390258,0.02819526381790638,0.035999998450279236
0.28600001335144043,-0.00022499999613501132,0.027802908793091774,0.03317999839782715
0.28700000047683716,-0.00039500001003034413,0.027180397883057594,0.02928999997675419
0.2879999876022339,-0.00035200000274926424,0.027352889999747276,0.024709999561309814
0.289000004529953,-8.440000237897038e-05,0.027368610724806786,0.01988000050187111
0.28999999165534973,0.00038899999344721437,0.027896489948034286,0.01522000040858984
0.29100000858306885,0.0010400000028312206,0.028200935572385788,0.011230000294744968
0.2919999957084656,0.0018100000452250242,0.02881220169365406,0.008270000107586384
0.2930000126361847,0.0026599999982863665,0.029959259554743767,0.006639999803155661
0.2939999997615814,0.0035000001080334187,0.030929313972592354,0.0065299998968839645
0.29499998688697815,0.004269999917596579,0.031931258738040924,0.007960000075399876
0.29600000381469727,0.004920000210404396,0.03314635902643204,0.010879999957978725
0.296999990940094,0.005410000216215849,0.0345468632876873,0.015110000036656857
0.2980000078678131,0.00570000009611249,0.035995326936244965,0.020349999889731407
0.29899999499320984,0.005779999773949385,0.03763473033905029,0.02621000073850155
0.30000001192092896,0.005669999867677689,0.03925366699695587,0.032180000096559525
0.3009999990463257,0.005379999987781048,0.04090265929698944,0.03779999911785126
0.3019999861717224,0.0049600000493228436,0.04280921071767807,0.04261000081896782
0.30300000309944153,0.004449999891221523,0.04485622048377991,0.04623999819159508
0.30399999022483826,0.0038900000508874655,0.046652164310216904,0.048420000821352005
0.3050000071525574,0.003329999977722764,0.048573192209005356,0.04885999858379364
0.3059999942779541,0.0028299998957663774,0.050702501088380814,0.047520000487565994
0.3070000112056732,0.0023900000378489494,0.05317659676074982,0.044440001249313354
0.30799999833106995,0.002050000010058284,0.05553342029452324,0.039820000529289246
0.3089999854564667,0.001820000004954636,0.05847807973623276,0.0340300016105175
0.3100000023841858,0.0016799999866634607,0.06154464930295944,0.027529999613761902
0.3109999895095825,0.0016199999954551458,0.06505513936281204,0.020889999344944954
0.31200000643730164,0.0016199999954551458,0.06894979625940323,0.014650000259280205
0.31299999356269836,0.0016499999910593033,0.07315149903297424,0.009309999644756317
0.3140000104904175,0.0016799999866634607,0.07806700468063354,0.005260000005364418
0.3149999976158142,0.0017099999822676182,0.08318886160850525,0.0032599999103695154
0.3160000145435333,0.0017000000225380063,0.08841856569051743,0.003719999920576811
0.31700000166893005,0.0016599999507889152,0.09400349855422974,0.00687999976798892
0.3179999887943268,0.0015999999595806003,0.09947165101766586,0.012670000083744526
0.3190000057220459,0.001500000013038516,0.10512345284223557,0.02047000080347061
0.3199999928474426,0.0014199999859556556,0.11040561646223068,0.030570000410079956
0.32100000977516174,0.0013699999544769526,0.11501020938158035,0.04244999960064888
0.32199999690055847,0.0013699999544769526,0.11893480271100998,0.05550999939441681
0.3230000138282776,0.0014600000577047467,0.12162917852401733,0.06870999932289124
0.3240000009536743,0.0016299999551847577,0.12285745143890381,0.08026999980211258
0.32499998807907104,0.0019199999514967203,0.12155559659004211,0.08985999971628189
0.32600000500679016,0.002319999970495701,0.11881425231695175,0.09623999893665314
0.3269999921321869,0.0028200000524520874,0.11266513168811798,0.0983399972319603
0.328000009059906,0.003379999892786145,0.10326635092496872,0.09485000371932983
0.32899999618530273,0.003949999809265137,0.09015174210071564,0.08405999839305878
0.33000001311302185,0.004490000195801258,0.07429284602403641,0.06577000021934509
0.3310000002384186,0.00494999997317791,0.053860004991292953,0.039239998906850815
0.3319999873638153,0.005260000005364418,0.029553158208727837,0.004120000172406435
0.3330000042915344,0.005350000225007534,0.0011579639976844192,-0.03970000147819519
0.33399999141693115,0.005150000099092722,-0.03018965758383274,-0.09216000139713287
0.33500000834465027,0.004639999940991402,-0.06539750844240189,-0.15216000378131866
0.335999995470047,0.003759999992325902,-0.10374296456575394,-0.21877999603748322
0.3370000123977661,0.0024999999441206455,-0.1452365517616272,-0.2906700074672699
0.33799999952316284,0.0008679999737069011,-0.18769267201423645,-0.36601001024246216
0.33899998664855957,-0.001120000029914081,-0.23157258331775665,-0.4424099922180176
0.3400000035762787,-0.00343000004068017,-0.2761819660663605,-0.5174300074577332
0.3409999907016754,-0.005979999899864197,-0.3197855055332184,-0.5889599919319153
0.34200000762939453,-0.0086899995803833,-0.3617919087409973,-0.6547999978065491
0.34299999475479126,-0.011479999870061874,-0.4019313156604767,-0.7124300003051758
0.3440000116825104,-0.014229999855160713,-0.43804240226745605,-0.759090006351471
0.3449999988079071,-0.01680999994277954,-0.47056564688682556,-0.7928699851036072
0.34599998593330383,-0.019139999523758888,-0.4977220296859741,-0.8129199743270874
0.34700000286102295,-0.02111000008881092,-0.5191575884819031,-0.8185399770736694
0.3479999899864197,-0.02263999916613102,-0.5344573259353638,-0.8091099858283997
0.3490000069141388,-0.02363000065088272,-0.5430878400802612,-0.784250020980835
0.3499999940395355,-0.024049999192357063,-0.5453352332115173,-0.7447199821472168
0.35100001096725464,-0.023889999836683273,-0.5405800938606262,-0.6925600171089172
0.35199999809265137,-0.023159999400377274,-0.5293003916740417,-0.6298400163650513
0.3529999852180481,-0.02191000059247017,-0.5117050409317017,-0.5586000084877014
0.3540000021457672,-0.020160000771284103,-0.4882924258708954,-0.48107999563217163
0.35499998927116394,-0.01800999976694584,-0.4598451554775238,-0.4001399874687195
0.35600000619888306,-0.01558000035583973,-0.4263410270214081,-0.31905999779701233
0.3569999933242798,-0.012959999963641167,-0.39009881019592285,-0.24062000215053558
0.3580000102519989,-0.01027000043541193,-0.3507571816444397,-0.16718000173568726
0.35899999737739563,-0.00761000020429492,-0.3092574179172516,-0.10074000060558319
0.36000001430511475,-0.00506999995559454,-0.26678094267845154,-0.043299999088048935
0.3610000014305115,-0.002749999985098839,-0.2255007028579712,0.004050000105053186
0.3619999885559082,-0.0007019999902695417,-0.18420946598052979,0.04072999954223633
0.3630000054836273,0.0010300000431016088,-0.14466936886310577,0.0666700005531311
0.36399999260902405,0.002420000033453107,-0.10728473961353302,0.08241000026464462
0.36500000953674316,0.0034799999557435513,-0.0733456164598465,0.08829999715089798
0.3659999966621399,0.004209999926388264,-0.04229821264743805,0.0862400010228157
0.367000013589859,0.004660000093281269,-0.014909565448760986,0.07794000208377838
0.36800000071525574,0.0048699998296797276,0.009165613912045956,0.06505999714136124
0.36899998784065247,0.004879999905824661,0.02861024998128414,0.04949000105261803
0.3700000047683716,0.004720000084489584,0.044810596853494644,0.032189998775720596
0.3709999918937683,0.004449999891221523,0.057774417102336884,0.0154600003734231
0.3720000088214874,0.004100000020116568,0.06728150695562363,0.0007469999836757779
0.37299999594688416,0.003719999920576811,0.07384848594665527,-0.011049999855458736
0.37400001287460327,0.0033199999015778303,0.07817605137825012,-0.019260000437498093
0.375,0.0028800000436604023,0.07983413338661194,-0.02428000047802925
0.37599998712539673,0.002460000105202198,0.08010518550872803,-0.025609999895095825
0.37700000405311584,0.002050000010058284,0.07880433648824692,-0.023439999669790268
0.3779999911785126,0.0016700000269338489,0.07665299624204636,-0.018379999324679375
0.3790000081062317,0.0013299999991431832,0.07368515431880951,-0.011180000379681587
0.3799999952316284,0.001019999966956675,0.07032128423452377,-0.003019999945536256
0.38100001215934753,0.0007800000021234155,0.06680785119533539,0.005520000122487545
0.38199999928474426,0.0006329999887384474,0.06329207122325897,0.013810000382363796
0.382999986410141,0.000598000013269484,0.05995435267686844,0.021220000460743904
0.3840000033378601,0.0006880000000819564,0.056716516613960266,0.02725999988615513
0.38499999046325684,0.0009180000051856041,0.0540325865149498,0.03158000111579895
0.38600000739097595,0.0013000000035390258,0.05145328491926193,0.0340999998152256
0.3869999945163727,0.001820000004954636,0.04941289871931076,0.034929998219013214
0.3880000114440918,0.002469999948516488,0.047653451561927795,0.0343099981546402
0.3889999985694885,0.003220000071451068,0.045671191066503525,0.032519999891519547
0.38999998569488525,0.004009999800473452,0.04355248808860779,0.03003999963402748
0.39100000262260437,0.004800000227987766,0.041480712592601776,0.02717999927699566
0.3919999897480011,0.005520000122487545,0.039851799607276917,0.02428000047802925
0.3930000066757202,0.00610999995842576,0.03805025294423103,0.021630000323057175
0.39399999380111694,0.006500000134110451,0.03566766902804375,0.019419999793171883
0.39500001072883606,0.006639999803155661,0.03342869132757187,0.01775999926030636
0.3959999978542328,0.006490000057965517,0.03092537261545658,0.01662999950349331
0.3970000147819519,0.006029999814927578,0.029114127159118652,0.01590999960899353
0.39800000190734863,0.005260000005364418,0.027046246454119682,0.015420000068843365
0.39899998903274536,0.004189999774098396,0.025273866951465607,0.014949999749660492
0.4000000059604645,0.0028899998869746923,0.023327793926000595,0.014279999770224094
0.4009999930858612,0.00139999995008111,0.02152075432240963,0.013260000385344028
0.4020000100135803,-0.00017600000137463212,0.019952058792114258,0.011789999902248383
0.40299999713897705,-0.0017600000137463212,0.018275313079357147,0.009820000268518925
0.40400001406669617,-0.0032599999103695154,0.017229100689291954,0.007379999849945307
0.4050000011920929,-0.004569999873638153,0.016149792820215225,0.004629999864846468
0.4059999883174896,-0.005609999876469374,0.01530015654861927,0.0017800000496208668
0.40700000524520874,-0.006320000160485506,0.014736058190464973,-0.0008800000068731606
0.40799999237060547,-0.006659999955445528,0.014390754513442516,-0.0030799999367445707
0.4090000092983246,-0.0065899998880922794,0.014061184599995613,-0.0045900000259280205
0.4099999964237213,-0.006120000034570694,0.013849680311977863,-0.005119999870657921
0.41100001335144043,-0.005289999768137932,0.013970046304166317,-0.004569999873638153
0.41200000047683716,-0.004149999935179949,0.014077486470341682,-0.0029100000392645597
0.4129999876022339,-0.0027799999807029963,0.014364847913384438,-0.00020199999562464654
0.414000004529953,-0.0012400000123307109,0.014513332396745682,0.003329999977722764
0.41499999165534973,0.00035099999513477087,0.01482961606234312,0.007430000230669975
0.41600000858306885,0.0019000000320374966,0.014948776923120022,0.011660000309348106
0.4169999957084656,0.0033199999015778303,0.015432902611792088,0.01558000035583973
0.4180000126361847,0.004519999958574772,0.015603236854076385,0.01875000074505806
0.4189999997615814,0.005470000207424164,0.01605811156332493,0.020740000531077385
0.41999998688697815,0.006089999806135893,0.017131393775343895,0.021229999139904976
0.42100000381469727,0.006380000151693821,0.017914632335305214,0.01996999979019165
0.421999990940094,0.006339999847114086,0.018793944269418716,0.01689000055193901
0.4230000078678131,0.006000000052154064,0.019616521894931793,0.012029999867081642
0.42399999499320984,0.005410000216215849,0.020506562665104866,0.005619999952614307
0.42500001192092896,0.004639999940991402,0.021863088011741638,-0.0019199999514967203
0.4259999990463257,0.0037799999117851257,0.022869395092129707,-0.010099999606609344
0.4269999861717224,0.002899999963119626,0.023995405063033104,-0.01834000088274479
0.42800000309944153,0.002099999925121665,0.024797653779387474,-0.026040000841021538
0.42899999022483826,0.0014600000577047467,0.0256944727152586,-0.032590001821517944
0.4300000071525574,0.0010499999625608325,0.02625609003007412,-0.03740999847650528
0.4309999942779541,0.0009430000209249556,0.027377255260944366,-0.04010999947786331
0.4320000112056732,0.0011599999852478504,0.028403466567397118,-0.04042999818921089
0.43299999833106995,0.00171999994199723,0.029262268915772438,-0.03830000013113022
0.4339999854564667,0.002589999930933118,0.03034394606947899,-0.03384999930858612
0.4350000023841858,0.0037400000728666782,0.030964571982622147,-0.02734999917447567
0.4359999895095825,0.005100000184029341,0.031325917690992355,-0.01931999996304512
0.43700000643730164,0.0065899998880922794,0.03147132322192192,-0.010370000265538692
0.43799999356269836,0.00810999982059002,0.031982358545064926,-0.001180000021122396
0.4390000104904175,0.00953999999910593,0.03167956322431564,0.007459999993443489
0.4399999976158142,0.010780000127851963,0.03110763616859913,0.014890000224113464
0.4410000145435333,0.011739999987185001,0.03065379709005356,0.02046000026166439
0.44200000166893005,0.012330000288784504,0.030043046921491623,0.02369000017642975
0.4429999887943268,0.012489999644458294,0.02836432307958603,0.02426999993622303
0.4440000057220459,0.012179999612271786,0.027190672233700752,0.022040000185370445
0.4449999928474426,0.011389999650418758,0.025565890595316887,0.01713000051677227
0.44600000977516174,0.010160000063478947,0.023357491940259933,0.009859999641776085
0.44699999690055847,0.008539999835193157,0.02082999423146248,0.0006769999745301902
0.4480000138282776,0.0065899998880922794,0.01796293444931507,-0.009809999726712704
0.4490000009536743,0.004430000204592943,0.015173809602856636,-0.020899999886751175
0.44999998807907104,0.00215999991632998,0.011798524297773838,-0.03181000053882599
0.45100000500679016,-9.029999637277797e-05,0.008866694755852222,-0.04179999977350235
0.4519999921321869,-0.002219999907538295,0.005504957865923643,-0.05023999884724617
0.453000009059906,-0.004129999782890081,0.0026267573703080416,-0.05663000047206879
0.45399999618530273,-0.00571999978274107,-0.0010205538710579276,-0.06061999872326851
0.45500001311302185,-0.006930000148713589,-0.00415221368893981,-0.061980001628398895
0.4560000002384186,-0.00773000018671155,-0.007947471924126148,-0.060770001262426376
0.4569999873638153,-0.00810999982059002,-0.01125908549875021,-0.05719999969005585
0.4580000042915344,-0.008089999668300152,-0.014429450035095215,-0.051669999957084656
0.45899999141693115,-0.007689999882131815,-0.017770810052752495,-0.04473999887704849
0.46000000834465027,-0.006969999987632036,-0.02058514580130577,-0.036970000714063644
0.460999995470047,-0.006010000128298998,-0.023023584857583046,-0.029069999232888222
0.4620000123977661,-0.004879999905824661,-0.025398312136530876,-0.02167999930679798
0.46299999952316284,-0.003659999929368496,-0.027167286723852158,-0.015390000306069851
0.46399998664855957,-0.002420000033453107,-0.02876233495771885,-0.010759999975562096
0.4650000035762787,-0.0012199999764561653,-0.030285406857728958,-0.008080000057816505
0.4659999907016754,-0.0001049999991664663,-0.03130059316754341,-0.007600000128149986
0.46700000762939453,0.000881000014487654,-0.03144253417849541,-0.009349999949336052
0.46799999475479126,0.00171999994199723,-0.031168101355433464,-0.01322999969124794
0.4690000116825104,0.0023900000378489494,-0.031193049624562263,-0.01899000070989132
0.4699999988079071,0.0029200001154094934,-0.029967976734042168,-0.026179999113082886
0.47099998593330383,0.0033100000582635403,-0.028359878808259964,-0.034359999001026154
0.47200000286102295,0.0035699999425560236,-0.02668309397995472,-0.04301000013947487
0.4729999899864197,0.003719999920576811,-0.02436280995607376,-0.05163000151515007
0.4740000069141388,0.0037700000684708357,-0.02101185917854309,-0.0597199983894825
0.4749999940395355,0.0037400000728666782,-0.018471790477633476,-0.06682000309228897
0.47600001096725464,0.003640000009909272,-0.01478622481226921,-0.07259999960660934
0.47699999809265137,0.003470000112429261,-0.011026243679225445,-0.07684999704360962
0.4779999852180481,0.003220000071451068,-0.006822863593697548,-0.0794999971985817
0.4790000021457672,0.002899999963119626,-0.0023830453865230083,-0.08055999875068665
0.47999998927116394,0.0024800000246614218,0.0018649949925020337,-0.08011999726295471
0.48100000619888306,0.001970000099390745,0.006129218265414238,-0.0784199982881546
0.4819999933242798,0.0013599999947473407,0.010203224606812,-0.07574000209569931
0.4830000102519989,0.0006649999995715916,0.014576069079339504,-0.07241000235080719
0.48399999737739563,-0.00012199999764561653,0.018325621262192726,-0.06880000233650208
0.48500001430511475,-0.0009929999941959977,0.02243806980550289,-0.06518000364303589
0.4860000014305115,-0.0019199999514967203,0.025936616584658623,-0.06187000125646591
0.4869999885559082,-0.0028899998869746923,0.029829878360033035,-0.05909999832510948
0.4880000054836273,-0.003860000055283308,0.03261367604136467,-0.05705000087618828
0.48899999260902405,-0.0047900001518428326,0.03478646278381348,-0.055879998952150345
0.49000000953674316,-0.0056500001810491085,0.036728136241436005,-0.05553999915719032
0.4909999966621399,-0.006390000227838755,0.0378805510699749,-0.056040000170469284
0.492000013589859,-0.006990000139921904,0.03855206072330475,-0.057339999824762344
0.49300000071525574,-0.007400000002235174,0.038665395230054855,-0.05933000147342682
0.49399998784065247,-0.007590000052005053,0.03817547857761383,-0.06193999946117401
0.4950000047683716,-0.007540000136941671,0.03752056509256363,-0.06494999676942825
0.4959999918937683,-0.007249999791383743,0.03661222383379936,-0.0682699978351593
0.4970000088214874,-0.0066999997943639755,0.03501971438527107,-0.07181999832391739
0.49799999594688416,-0.005919999908655882,0.03301394358277321,-0.0754999965429306
0.49900001287460327,-0.004920000210404396,0.030859487131237984,-0.0792900025844574
0.5,-0.0037400000728666782,0.0286413561552763,-0.0830800011754036
0.5009999871253967,-0.0024300001095980406,0.025982312858104706,-0.08686999976634979
0.5019999742507935,-0.0010499999625608325,0.023654436692595482,-0.0906200036406517
0.503000020980835,0.00035099999513477087,0.021494800224900246,-0.0943399965763092
0.5040000081062317,0.0016899999463930726,0.019270706921815872,-0.09803000092506409
0.5049999952316284,0.0029100000392645597,0.017462383955717087,-0.10159000009298325
0.5059999823570251,0.00394000019878149,0.01613491401076317,-0.10499999672174454
0.5070000290870667,0.004730000160634518,0.014727607369422913,-0.10819000005722046
0.5080000162124634,0.005239999853074551,0.014218192547559738,-0.11110000312328339
0.5090000033378601,0.005439999978989363,0.013714609667658806,-0.11367999762296677
0.5099999904632568,0.005330000072717667,0.013372663408517838,-0.11576999723911285
0.5109999775886536,0.004910000134259462,0.01344058383256197,-0.11734999716281891
0.5120000243186951,0.004230000078678131,0.013928775675594807,-0.11836999654769897
0.5130000114440918,0.0033400000538676977,0.014327232725918293,-0.11881999671459198
0.5139999985694885,0.0022899999748915434,0.015034816227853298,-0.11878000199794769
0.5149999856948853,0.0011699999449774623,0.016086334362626076,-0.11818999797105789
0.515999972820282,5.360000068321824e-05,0.017211172729730606,-0.11721000075340271
0.5170000195503235,-0.0009660000214353204,0.01821434684097767,-0.11597999930381775
0.5180000066757202,-0.001820000004954636,0.019251951947808266,-0.11468999832868576
0.5189999938011169,-0.0024500000290572643,0.020617729052901268,-0.11354999989271164
0.5199999809265137,-0.0028099999763071537,0.021615872159600258,-0.1126599982380867
0.5210000276565552,-0.0028699999675154686,0.022254683077335358,-0.11225000023841858
0.5220000147819519,-0.002630000002682209,0.022723792120814323,-0.11246000230312347
0.5230000019073486,-0.0021100000012665987,0.022815892472863197,-0.11343999952077866
0.5239999890327454,-0.0013599999947473407,0.022442549467086792,-0.1152999997138977
0.5249999761581421,-0.00042799999937415123,0.02174163982272148,-0.11796999722719193
0.5260000228881836,0.0006060000159777701,0.020652398467063904,-0.12144000083208084
0.5270000100135803,0.0016700000269338489,0.019618762657046318,-0.12560999393463135
0.527999997138977,0.00267999991774559,0.018260357901453972,-0.1303499937057495
0.5289999842643738,0.0035699999425560236,0.016848435625433922,-0.13553999364376068
0.5299999713897705,0.004259999841451645,0.015100867487490177,-0.14086000621318817
0.531000018119812,0.00471000000834465,0.013323284685611725,-0.146139994263649
0.5320000052452087,0.004889999981969595,0.011492575518786907,-0.15116000175476074
0.5329999923706055,0.004780000075697899,0.009251349605619907,-0.15577000379562378
0.5339999794960022,0.004389999900013208,0.006842365488409996,-0.1598300039768219
0.5350000262260437,0.0037400000728666782,0.0047796498984098434,-0.16317999362945557
0.5360000133514404,0.0028699999675154686,0.0026095882058143616,-0.16580000519752502
0.5370000004768372,0.001829999964684248,0.00043362562428228557,-0.16773000359535217
0.5379999876022339,0.000666000007186085,-0.001681497902609408,-0.16901999711990356
0.5389999747276306,-0.0005569999921135604,-0.0038827729877084494,-0.16981999576091766
0.5400000214576721,-0.0017800000496208668,-0.00598476966843009,-0.17020000517368317
0.5410000085830688,-0.002940000034868717,-0.007853093557059765,-0.17038999497890472
0.5419999957084656,-0.004000000189989805,-0.0096005043014884,-0.1705700010061264
0.5429999828338623,-0.004920000210404396,-0.011499378830194473,-0.17091000080108643
0.5440000295639038,-0.005659999791532755,-0.013147578574717045,-0.17156000435352325
0.5450000166893005,-0.006209999788552523,-0.0150055643171072,-0.1725499927997589
0.5460000038146973,-0.006539999973028898,-0.01693248189985752,-0.17399999499320984
0.546999990940094,-0.006659999955445528,-0.018927210941910744,-0.17590999603271484
0.5479999780654907,-0.006579999811947346,-0.02088310569524765,-0.17824000120162964
0.5490000247955322,-0.006310000084340572,-0.02307593636214733,-0.1809300035238266
0.550000011920929,-0.005869999993592501,-0.025281628593802452,-0.18374000489711761
0.5509999990463257,-0.005289999768137932,-0.027142498642206192,-0.18659000098705292
0.5519999861717224,-0.004600000102072954,-0.029183125123381615,-0.18930000066757202
0.5529999732971191,-0.0038499999791383743,-0.03142133355140686,-0.19172999262809753
0.5540000200271606,-0.0030799999367445707,-0.033642467111349106,-0.19373999536037445
0.5550000071525574,-0.0023300000466406345,-0.03606414794921875,-0.19517000019550323
0.5559999942779541,-0.0016499999910593033,-0.03847420588135719,-0.1959799975156784
0.5569999814033508,-0.00107999995816499,-0.04151304066181183,-0.1961899995803833
0.5580000281333923,-0.0006590000120922923,-0.044763822108507156,-0.19583000242710114
0.5590000152587891,-0.0004180000105407089,-0.04816310107707977,-0.19498999416828156
0.5600000023841858,-0.0003760000108741224,-0.051610905677080154,-0.193790003657341
0.5609999895095825,-0.0005460000247694552,-0.0552927665412426,-0.19243000447750092
0.5619999766349792,-0.0009260000078938901,-0.058993421494960785,-0.19109000265598297
0.5630000233650208,-0.001500000013038516,-0.06281543523073196,-0.189970001578331
0.5640000104904175,-0.002240000059828162,-0.06670970469713211,-0.1892399936914444
0.5649999976158142,-0.0030900000128895044,-0.0703524500131607,-0.18904000520706177
0.5659999847412109,-0.004009999800473452,-0.07421154528856277,-0.1894800066947937
0.5669999718666077,-0.004939999897032976,-0.07773389667272568,-0.1906300038099289
0.5680000185966492,-0.0058200000785291195,-0.08107925206422806,-0.19245000183582306
0.5690000057220459,-0.006579999811947346,-0.08386336266994476,-0.19483999907970428
0.5699999928474426,-0.007170000113546848,-0.08647450059652328,-0.19766999781131744
0.5709999799728394,-0.007550000213086605,-0.08868085592985153,-0.20076000690460205
0.5720000267028809,-0.007689999882131815,-0.09058519452810287,-0.20387999713420868
0.5730000138282776,-0.007569999899715185,-0.09177926182746887,-0.20678000152111053
0.5740000009536743,-0.007189999800175428,-0.0921044573187828,-0.2091899961233139
0.574999988079071,-0.006579999811947346,-0.09229666739702225,-0.21089999377727509
0.5759999752044678,-0.005760000087320805,-0.09179876744747162,-0.21171000599861145
0.5770000219345093,-0.0047900001518428326,-0.09080424904823303,-0.21151000261306763
0.578000009059906,-0.0037299999967217445,-0.08905038982629776,-0.21020999550819397
0.5789999961853027,-0.002630000002682209,-0.08685481548309326,-0.20780999958515167
0.5799999833106995,-0.0015699999639764428,-0.08386828750371933,-0.20441000163555145
0.5809999704360962,-0.0005939999828115106,-0.08050677180290222,-0.20017999410629272
0.5820000171661377,0.00023200000578071922,-0.07682125270366669,-0.19532999396324158
0.5830000042915344,0.0008709999965503812,-0.07260475307703018,-0.19011999666690826
0.5839999914169312,0.001290000043809414,-0.06830902397632599,-0.18479999899864197
0.5849999785423279,0.0014900000533089042,-0.06380881369113922,-0.17972999811172485
0.5860000252723694,0.001449999981559813,-0.05913575366139412,-0.1751900017261505
0.5870000123977661,0.0012000000569969416,-0.05433860048651695,-0.1714099943637848
0.5879999995231628,0.000770999991800636,-0.04925167188048363,-0.16857999563217163
0.5889999866485596,0.0002010000025620684,-0.04392432048916817,-0.16675999760627747
0.5899999737739563,-0.00046499999007210135,-0.03876983001828194,-0.16606000065803528
0.5910000205039978,-0.0011699999449774623,-0.03428594768047333,-0.1664399951696396
0.5920000076293945,-0.0018599999602884054,-0.02974436804652214,-0.16775000095367432
0.5929999947547913,-0.0024900001008063555,-0.025463221594691277,-0.16979999840259552
0.593999981880188,-0.003000000026077032,-0.021152447909116745,-0.17227999866008759
0.5950000286102295,-0.003379999892786145,-0.01691235974431038,-0.17497000098228455
0.5960000157356262,-0.003590000094845891,-0.013095999136567116,-0.17755000293254852
0.597000002861023,-0.0036200000904500484,-0.0092761917039752,-0.1797100007534027
0.5979999899864197,-0.003470000112429261,-0.005790033843368292,-0.18116000294685364
0.5989999771118164,-0.0031399999279528856,-0.002197159454226494,-0.1815900057554245
0.6000000238418579,-0.0026700000744313,0.0009084262419492006,-0.1809300035238266
0.6010000109672546,-0.002099999925121665,0.0040468210354447365,-0.1790499985218048
0.6019999980926514,-0.0014600000577047467,0.007035141345113516,-0.175929993391037
0.6029999852180481,-0.0007949999999254942,0.009957094676792622,-0.17159000039100647
0.6039999723434448,-0.00014200000441633165,0.012693827040493488,-0.16609999537467957
0.6050000190734863,0.00044800000614486635,0.015163205564022064,-0.1597599983215332
0.6060000061988831,0.0009420000133104622,0.0177849680185318,-0.15277999639511108
0.6069999933242798,0.0013200000394135714,0.02026650495827198,-0.14541999995708466
0.6079999804496765,0.001560000004246831,0.022694360464811325,-0.1379300057888031
0.609000027179718,0.0016799999866634607,0.02480331063270569,-0.13054999709129333
0.6100000143051147,0.0016899999463930726,0.026695551350712776,-0.12364999949932098
0.6110000014305115,0.001610000035725534,0.02822788804769516,-0.11740999668836594
0.6119999885559082,0.0014900000533089042,0.029636021703481674,-0.11197999864816666
0.6129999756813049,0.0013599999947473407,0.03079373389482498,-0.10745000094175339
0.6140000224113464,0.0012799999676644802,0.03174172714352608,-0.10379999876022339
0.6150000095367432,0.0012799999676644802,0.032740116119384766,-0.10113999992609024
0.6159999966621399,0.00139999995008111,0.03349316120147705,-0.09934999793767929
0.6169999837875366,0.0016799999866634607,0.03411724418401718,-0.09828999638557434
0.6179999709129333,0.0021299999207258224,0.03433677926659584,-0.09776999801397324
0.6190000176429749,0.0027199999894946814,0.034502457827329636,-0.09751000255346298
0.6200000047683716,0.00343999988399446,0.03405265510082245,-0.09745000302791595
0.6209999918937683,0.0042500002309679985,0.03373383730649948,-0.09731999784708023
0.621999979019165,0.005090000107884407,0.03349599242210388,-0.09690999984741211
0.6230000257492065,0.005890000145882368,0.03321109712123871,-0.09601999819278717
0.6240000128746033,0.006599999964237213,0.03273093327879906,-0.0944100022315979
0.625,0.007139999885112047,0.03207819536328316,-0.09217000007629395
0.6259999871253967,0.007449999917298555,0.03128784894943237,-0.0891600027680397
0.6269999742507935,0.007499999832361937,0.030520601198077202,-0.0853400006890297
0.628000020980835,0.007259999867528677,0.02957218699157238,-0.08073999732732773
0.6290000081062317,0.00674000009894371,0.028668226674199104,-0.07534000277519226
0.6299999952316284,0.005940000060945749,0.02792583592236042,-0.06941000372171402
0.6309999823570251,0.004939999897032976,0.026905177161097527,-0.06300999969244003
0.6320000290870667,0.0037799999117851257,0.026146400719881058,-0.05626000091433525
0.6330000162124634,0.0025599999353289604,0.02529563009738922,-0.0492900013923645
0.6340000033378601,0.0013599999947473407,0.024377787485718727,-0.04224000126123428
0.6349999904632568,0.0002610000083222985,0.023334652185440063,-0.03537999838590622
0.6359999775886536,-0.000645000021904707,0.022457929328083992,-0.028769999742507935
0.6370000243186951,-0.0013000000035390258,0.021584248170256615,-0.022520000115036964
0.6380000114440918,-0.0016499999910593033,0.020770862698554993,-0.016720000654459
0.6389999985694885,-0.0016899999463930726,0.01991204172372818,-0.011429999954998493
0.6399999856948853,-0.0014199999859556556,0.019160183146595955,-0.006819999776780605
0.640999972820282,-0.0008720000041648746,0.018611449748277664,-0.002839999971911311
0.6420000195503235,-0.00010800000018207356,0.018082862719893456,0.0005019999807700515
0.6430000066757202,0.0007999999797903001,0.017675058916211128,0.003220000071451068
0.6439999938011169,0.0017600000137463212,0.01722121424973011,0.005309999920427799
0.6449999809265137,0.002689999993890524,0.01688416674733162,0.006719999946653843
0.6460000276565552,0.003490000031888485,0.01655644364655018,0.0075599998235702515
0.6470000147819519,0.004089999943971634,0.01615225151181221,0.007890000008046627
0.6480000019073486,0.00443999981507659,0.016036728397011757,0.0077599999494850636
0.6489999890327454,0.004490000195801258,0.01603207178413868,0.007209999952465296
0.6499999761581421,0.004240000154823065,0.016013897955417633,0.006219999864697456
0.6510000228881836,0.003700000001117587,0.01617632806301117,0.004920000210404396
0.6520000100135803,0.0029100000392645597,0.016208864748477936,0.0034000000450760126
0.652999997138977,0.0019399999873712659,0.01636986993253231,0.0017300000181421638
0.6539999842643738,0.0008549999911338091,0.01634060963988304,-2.1100000594742596e-05
0.6549999713897705,-0.00024399999529123306,0.01638626679778099,-0.001829999964684248
0.656000018119812,-0.0012799999676644802,0.016304774209856987,-0.0035800000187009573
0.6570000052452087,-0.00215999991632998,0.016405392438173294,-0.005169999785721302
0.6579999923706055,-0.0028299998957663774,0.016499103978276253,-0.0065299998968839645
0.6589999794960022,-0.003229999914765358,0.016471590846776962,-0.007579999975860119
0.6600000262260437,-0.0033199999015778303,0.01655326783657074,-0.008329999633133411
0.6610000133514404,-0.0030900000128895044,0.016245530918240547,-0.008709999732673168
0.6620000004768372,-0.0025599999353289604,0.01619638502597809,-0.008709999732673168
0.6629999876022339,-0.0017600000137463212,0.015964917838573456,-0.008320000022649765
0.6639999747276306,-0.0007450000266544521,0.01593882590532303,-0.007540000136941671
0.6650000214576721,0.00041700000292621553,0.015712713822722435,-0.006459999829530716
0.6660000085830688,0.0016499999910593033,0.015579686500132084,-0.0051299999468028545
0.6669999957084656,0.002859999891370535,0.015398765914142132,-0.003650000086054206
0.6679999828338623,0.0039900001138448715,0.015236416831612587,-0.0020800000056624413
0.6690000295639038,0.00494999997317791,0.015169167891144753,-0.0004820000031031668
0.6700000166893005,0.005679999943822622,0.01506042294204235,0.0010400000028312206
0.6710000038146973,0.006130000110715628,0.014965101145207882,0.002409999957308173
0.671999990940094,0.006279999855905771,0.014884661883115768,0.0035800000187009573
0.6729999780654907,0.006130000110715628,0.014929360710084438,0.004540000110864639
0.6740000247955322,0.005679999943822622,0.014958456158638,0.005280000157654285
0.675000011920929,0.004970000125467777,0.015251672826707363,0.005849999841302633
0.6759999990463257,0.00406000018119812,0.015508974902331829,0.006289999932050705
0.6769999861717224,0.003000000026077032,0.015909384936094284,0.006690000183880329
0.6779999732971191,0.0018599999602884054,0.01632075011730194,0.0071299998089671135
0.6790000200271606,0.0007350000087171793,0.016607969999313354,0.007699999958276749
0.6800000071525574,-0.000307999987853691,0.016912508755922318,0.008500000461935997
0.6809999942779541,-0.0012000000569969416,0.0173787958920002,0.009600000455975533
0.6819999814033508,-0.0018700000364333391,0.017713457345962524,0.011060000397264957
0.6830000281333923,-0.0022899999748915434,0.01836138777434826,0.012910000048577785
0.6840000152587891,-0.0024300001095980406,0.01879025250673294,0.015080000273883343
0.6850000023841858,-0.0022799998987466097,0.019111815840005875,0.0175199992954731
0.6859999895095825,-0.0018500000005587935,0.019506195560097694,0.02012000046670437
0.6869999766349792,-0.001180000021122396,0.019863948225975037,0.022749999538064003
0.6880000233650208,-0.00032500000088475645,0.020058196038007736,0.02522999979555607
0.6890000104904175,0.0006680000224150717,0.02012830413877964,0.027370000258088112
0.6899999976158142,0.00171999994199723,0.020271435379981995,0.028950000181794167
0.6909999847412109,0.0027699999045580626,0.020356902852654457,0.02979999966919422
0.6919999718666077,0.0037400000728666782,0.0205251295119524,0.02978000044822693
0.6930000185966492,0.004579999949783087,0.020583394914865494,0.02879999950528145
0.6940000057220459,0.005239999853074551,0.02052214741706848,0.026809999719262123
0.6949999928474426,0.00570000009611249,0.020260989665985107,0.023830000311136246
0.6959999799728394,0.005940000060945749,0.020330941304564476,0.01996999979019165
0.6970000267028809,0.005969999823719263,0.020244689658284187,0.015410000458359718
0.6980000138282776,0.005810000002384186,0.020115837454795837,0.010379999876022339
0.6990000009536743,0.005499999970197678,0.019941410049796104,0.005179999861866236
0.699999988079071,0.005080000031739473,0.01984839141368866,0.00014600000577047467
0.7009999752044678,0.004610000178217888,0.019806144759058952,-0.004370000213384628
0.7020000219345093,0.004129999782890081,0.019857410341501236,-0.008050000295042992
0.703000009059906,0.0036899999249726534,0.01980782486498356,-0.010590000078082085
0.7039999961853027,0.0033199999015778303,0.019871512427926064,-0.01181000005453825
0.7049999833106995,0.0030499999411404133,0.020001940429210663,-0.011490000411868095
0.7059999704360962,0.0028899998869746923,0.020133957266807556,-0.009630000218749046
0.7070000171661377,0.002839999971911311,0.020190799608826637,-0.0062699997797608376
0.7080000042915344,0.002899999963119626,0.02025194652378559,-0.0015899999998509884
0.7089999914169312,0.0030400000978261232,0.020362870767712593,0.004100000020116568
0.7099999785423279,0.003229999914765358,0.0204584002494812,0.010459999553859234
0.7110000252723694,0.003449999960139394,0.02052321471273899,0.01703999936580658
0.7120000123977661,0.0036700000055134296,0.0205644853413105,0.023360000923275948
0.7129999995231628,0.0038799999747425318,0.020598091185092926,0.028950000181794167
0.7139999866485596,0.00406000018119812,0.020540578290820122,0.033319998532533646
0.7149999737739563,0.00419999985024333,0.020505590364336967,0.03610000014305115
0.7160000205039978,0.004310000222176313,0.020645568147301674,0.036979999393224716
0.7170000076293945,0.004399999976158142,0.020575881004333496,0.03578000143170357
0.7179999947547913,0.004480000119656324,0.02049867808818817,0.03246000036597252
0.718999981880188,0.004579999949783087,0.0203382670879364,0.02711999975144863
0.7200000286102295,0.00471000000834465,0.020269857719540596,0.019990000873804092
0.7210000157356262,0.004889999981969595,0.02013794705271721,0.011479999870061874
0.722000002861023,0.005119999870657921,0.01990492455661297,0.00203999993391335
0.7229999899864197,0.005410000216215849,0.019597606733441353,-0.007790000177919865
0.7239999771118164,0.005760000087320805,0.01945275068283081,-0.017410000786185265
0.7250000238418579,0.006140000186860561,0.019244585186243057,-0.02622999995946884
0.7260000109672546,0.006539999973028898,0.01914842426776886,-0.033720001578330994
0.7269999980926514,0.006940000224858522,0.018800407648086548,-0.03945999965071678
0.7279999852180481,0.007309999782592058,0.018532488495111465,-0.04311000183224678
0.7289999723434448,0.0076299998909235,0.018297187983989716,-0.04447000101208687
0.7300000190734863,0.007860000245273113,0.01807299815118313,-0.0435199998319149
0.7310000061988831,0.008019999600946903,0.01764652319252491,-0.04039999842643738
0.7319999933242798,0.008070000447332859,0.017256824299693108,-0.03540999814867973
0.7329999804496765,0.00803999975323677,0.016974251717329025,-0.028920000419020653
0.734000027179718,0.007930000312626362,0.016751663759350777,-0.021400000900030136
0.7350000143051147,0.007739999797195196,0.0163897592574358,-0.013410000130534172
0.7360000014305115,0.007519999984651804,0.01602879911661148,-0.005549999885261059
0.7369999885559082,0.007280000019818544,0.015765950083732605,0.0016599999507889152
0.7379999756813049,0.0070500001311302185,0.01554795354604721,0.007780000101774931
0.7390000224113464,0.006839999929070473,0.015286536887288094,0.012480000033974648
0.7400000095367432,0.006680000107735395,0.015133262611925602,0.015530000440776348
0.7409999966621399,0.006570000201463699,0.015066337771713734,0.016850000247359276
0.7419999837875366,0.0065299998968839645,0.015081917867064476,0.016499999910593033
0.7429999709129333,0.0065299998968839645,0.014982673339545727,0.014689999632537365
0.7440000176429749,0.006579999811947346,0.015232063829898834,0.011760000139474869
0.7450000047683716,0.006649999879300594,0.015465140342712402,0.008139999583363533
0.7459999918937683,0.006719999946653843,0.015832101926207542,0.004279999993741512
0.746999979019165,0.006779999937862158,0.016124317422509193,0.0006569999968633056
0.7480000257492065,0.006800000090152025,0.01667148247361183,-0.002300000051036477
0.7490000128746033,0.00675999978557229,0.017304636538028717,-0.004230000078678131
0.75,0.006649999879300594,0.018156202509999275,-0.004860000219196081
0.7509999871253967,0.006479999981820583,0.01891147345304489,-0.004019999876618385
0.7519999742507935,0.00622999994084239,0.019741171970963478,-0.0017000000225380063
0.753000020980835,0.005909999832510948,0.020784828811883926,0.001979999942705035
0.7540000081062317,0.005530000198632479,0.022023925557732582,0.006750000175088644
0.7549999952316284,0.005119999870657921,0.022983621805906296,0.012249999679625034
0.7559999823570251,0.004689999856054783,0.024108391255140305,0.018079999834299088
0.7570000290870667,0.004269999917596579,0.025449953973293304,0.023809999227523804
0.7580000162124634,0.003860000055283308,0.026835722848773003,0.02897999994456768
0.7590000033378601,0.0035000001080334187,0.02812330611050129,0.033149998635053635
0.7599999904632568,0.0031900000758469105,0.02926262468099594,0.03595000132918358
0.7609999775886536,0.002959999954327941,0.0304682869464159,0.03717999905347824
0.7620000243186951,0.00279999990016222,0.03178264573216438,0.036720000207424164
0.7630000114440918,0.0027099999133497477,0.03285667672753334,0.03457000106573105
0.7639999985694885,0.00267999991774559,0.03369980677962303,0.030799999833106995
0.7649999856948853,0.0027099999133497477,0.034673213958740234,0.025699999183416367
0.765999972820282,0.0027699999045580626,0.03536773473024368,0.019610000774264336
0.7670000195503235,0.002850000048056245,0.03607630729675293,0.012910000048577785
0.7680000066757202,0.0029200001154094934,0.03660571575164795,0.006020000204443932
0.7689999938011169,0.002959999954327941,0.037063635885715485,-0.0006580000044777989
0.7699999809265137,0.002950000111013651,0.03732496500015259,-0.006709999870508909
0.7710000276565552,0.002859999891370535,0.037474166601896286,-0.01181000005453825
0.7720000147819519,0.002689999993890524,0.03748016804456711,-0.01575000025331974
0.7730000019073486,0.0024300001095980406,0.03750111535191536,-0.01840999908745289
0.7739999890327454,0.0020800000056624413,0.0373920239508152,-0.019780000671744347
0.7749999761581421,0.0016499999910593033,0.037040553987026215,-0.019929999485611916
0.7760000228881836,0.0011500000255182385,0.03670438006520271,-0.01906999945640564
0.7770000100135803,0.0006249999860301614,0.03622885048389435,-0.017470000311732292
0.777999997138977,8.949999755714089e-05,0.035832300782203674,-0.015429999679327011
0.7789999842643738,-0.0004180000105407089,0.03517698496580124,-0.013269999995827675
0.7799999713897705,-0.0008580000139772892,0.034578677266836166,-0.01131999958306551
0.781000018119812,-0.0012000000569969416,0.03392313793301582,-0.009890000335872173
0.7820000052452087,-0.0014199999859556556,0.033588383346796036,-0.009200000204145908
0.7829999923706055,-0.001500000013038516,0.033098381012678146,-0.009379999712109566
0.7839999794960022,-0.0014299999456852674,0.032650433480739594,-0.010459999553859234
0.7850000262260437,-0.0012100000167265534,0.032098155468702316,-0.012369999662041664
0.7860000133514404,-0.0008679999737069011,0.03181448206305504,-0.015010000206530094
0.7870000004768372,-0.0004290000069886446,0.031331103295087814,-0.01816999912261963
0.7879999876022339,6.739999662386253e-05,0.030942661687731743,-0.02157999947667122
0.7889999747276306,0.0005840000230818987,0.030555076897144318,-0.02490999922156334
0.7900000214576721,0.001069999998435378,0.03030814416706562,-0.027799999341368675
0.7910000085830688,0.0014700000174343586,0.03008558414876461,-0.029980000108480453
0.7919999957084656,0.0017600000137463212,0.029886508360505104,-0.031230000779032707
0.7929999828338623,0.0019099999917671084,0.02974722348153591,-0.03135000169277191
0.7940000295639038,0.0019199999514967203,0.029698684811592102,-0.030220000073313713
0.7950000166893005,0.001769999973475933,0.029628600925207138,-0.027809999883174896
0.7960000038146973,0.001509999972768128,0.029419880360364914,-0.024219999089837074
0.796999990940094,0.0011599999852478504,0.029382791370153427,-0.019600000232458115
0.7979999780654907,0.0007730000070296228,0.029240258038043976,-0.014209999702870846
0.7990000247955322,0.0004079999926034361,0.028972016647458076,-0.0083600003272295
0.800000011920929,0.00012399999832268804,0.0287568811327219,-0.002400000113993883
0.8009999990463257,-2.370000038354192e-05,0.02857033722102642,0.003329999977722764
0.8019999861717224,9.970000064640772e-06,0.028419964015483856,0.008500000461935997
0.8029999732971191,0.00025599999935366213,0.028134765103459358,0.012790000066161156
0.8040000200271606,0.0007259999983943999,0.027666114270687103,0.015930000692605972
0.8050000071525574,0.0014100000262260437,0.027357427403330803,0.017729999497532845
0.8059999942779541,0.0022700000554323196,0.02706942707300186,0.01809000037610531
0.8069999814033508,0.003269999986514449,0.0267526563256979,0.017009999603033066
0.8080000281333923,0.004350000061094761,0.026440465822815895,0.014569999650120735
0.8090000152587891,0.005410000216215849,0.026206066831946373,0.010900000110268593
0.8100000023841858,0.006380000151693821,0.026023508980870247,0.006219999864697456
0.8109999895095825,0.007199999876320362,0.025714216753840446,0.0008120000129565597
0.8119999766349792,0.007790000177919865,0.025389086455106735,-0.005030000116676092
0.8130000233650208,0.00810999982059002,0.025091111660003662,-0.010970000177621841
0.8140000104904175,0.00812000036239624,0.02485230192542076,-0.016669999808073044
0.8149999976158142,0.007829999551177025,0.02450673095881939,-0.021859999746084213
0.8159999847412109,0.007259999867528677,0.024435175582766533,-0.026270000264048576
0.8169999718666077,0.0064500002190470695,0.024303382262587547,-0.029680000618100166
0.8180000185966492,0.005470000207424164,0.02440437488257885,-0.031939998269081116
0.8190000057220459,0.004370000213384628,0.024243740364909172,-0.032919999212026596
0.8199999928474426,0.0032500000670552254,0.024331439286470413,-0.03263000026345253
0.8209999799728394,0.0021899999119341373,0.02416858822107315,-0.031109999865293503
0.8220000267028809,0.0012600000482052565,0.024204326793551445,-0.028429999947547913
0.8230000138282776,0.0005130000063218176,0.024147165939211845,-0.02474999986588955
0.8240000009536743,1.4700000292577897e-06,0.02402285486459732,-0.02020999975502491
0.824999988079071,-0.0002570000069681555,0.02377345971763134,-0.015060000121593475
0.8259999752044678,-0.0002629999944474548,0.023743387311697006,-0.009530000388622284
0.8270000219345093,-3.980000110459514e-05,0.023676317185163498,-0.003869999898597598
0.828000009059906,0.00037399999564513564,0.023606108501553535,0.0017099999822676182
0.8289999961853027,0.0009219999774359167,0.02352694422006607,0.00698000006377697
0.8299999833106995,0.0015399999683722854,0.0234307199716568,0.011760000139474869
0.8309999704360962,0.00215999991632998,0.023320062085986137,0.015860000625252724
0.8320000171661377,0.0027199999894946814,0.02331354469060898,0.019169999286532402
0.8330000042915344,0.0031500000040978193,0.023380311205983162,0.02160000056028366
0.8339999914169312,0.00343000004068017,0.023570114746689796,0.02311999909579754
0.8349999785423279,0.0035099999513477087,0.02393987402319908,0.023730000481009483
0.8360000252723694,0.003389999968931079,0.02432355098426342,0.023499999195337296
0.8370000123977661,0.003060000017285347,0.02490299940109253,0.022530000656843185
0.8379999995231628,0.0025599999353289604,0.025413895025849342,0.02094000019133091
0.8389999866485596,0.001930000027641654,0.02609173394739628,0.018859999254345894
0.8399999737739563,0.0012100000167265534,0.026761118322610855,0.016459999606013298
0.8410000205039978,0.0004529999860096723,0.027551870793104172,0.013949999585747719
0.8420000076293945,-0.00027600000612437725,0.0283509511500597,0.01152000017464161
0.8429999947547913,-0.0009210000280290842,0.029366958886384964,0.009290000423789024
0.843999981880188,-0.0014199999859556556,0.03024807944893837,0.0073899999260902405
0.8450000286102295,-0.0017300000181421638,0.03114558942615986,0.005890000145882368
0.8460000157356262,-0.001829999964684248,0.03214561194181442,0.004879999905824661
0.847000002861023,-0.0017000000225380063,0.03290288522839546,0.004389999900013208
0.8479999899864197,-0.0013200000394135714,0.033672116696834564,0.004360000137239695
0.8489999771118164,-0.0007099999929778278,0.034258462488651276,0.004699999932199717
0.8500000238418579,0.0001049999991664663,0.03486790135502815,0.0052999998442828655
0.8510000109672546,0.0010900000343099236,0.035173483192920685,0.006010000128298998
0.8519999980926514,0.002199999988079071,0.03557441011071205,0.006690000183880329
0.8529999852180481,0.003379999892786145,0.035757556557655334,0.007189999800175428
0.8539999723434448,0.004600000102072954,0.035747505724430084,0.007329999934881926
0.8550000190734863,0.005770000163465738,0.03561041131615639,0.007019999902695417
0.8560000061988831,0.006870000157505274,0.03542289510369301,0.006130000110715628
0.8569999933242798,0.007840000092983246,0.03497804328799248,0.004629999864846468
0.8579999804496765,0.008670000359416008,0.03428413346409798,0.002529999939724803
0.859000027179718,0.009329999797046185,0.03353235870599747,-0.00011800000356743112
0.8600000143051147,0.009800000116229057,0.0325607992708683,-0.0031799999997019768
0.8610000014305115,0.010110000148415565,0.031789571046829224,-0.0065100002102553844
0.8619999885559082,0.010250000283122063,0.03076336160302162,-0.009929999709129333
0.8629999756813049,0.01027000043541193,0.02959667518734932,-0.01322999969124794
0.8640000224113464,0.01018999982625246,0.02841774933040142,-0.016179999336600304
0.8650000095367432,0.010040000081062317,0.027399549260735512,-0.018549999222159386
0.8659999966621399,0.009870000183582306,0.026352111250162125,-0.020169999450445175
0.8669999837875366,0.009700000286102295,0.0253672506660223,-0.020899999886751175
0.8679999709129333,0.009569999761879444,0.02439720369875431,-0.020640000700950623
0.8690000176429749,0.009499999694526196,0.023869410157203674,-0.01939000003039837
0.8700000047683716,0.009479999542236328,0.02336478792130947,-0.017149999737739563
0.8709999918937683,0.009519999846816063,0.022949136793613434,-0.014039999805390835
0.871999979019165,0.009630000218749046,0.0226245429366827,-0.010239999741315842
0.8730000257492065,0.00977999996393919,0.0224537942558527,-0.005950000137090683
0.8740000128746033,0.009949999861419201,0.022249212488532066,-0.0014700000174343586
0.875,0.010110000148415565,0.02228645235300064,0.002940000034868717
0.8759999871253967,0.010250000283122063,0.02239696867763996,0.006990000139921904
0.8769999742507935,0.010359999723732471,0.02257886901497841,0.010409999638795853
0.878000020980835,0.010409999638795853,0.023068461567163467,0.01295000035315752
0.8790000081062317,0.010400000028312206,0.02350063994526863,0.014410000294446945
0.8799999952316284,0.010329999960958958,0.023984868079423904,0.014680000022053719
0.8809999823570251,0.010209999978542328,0.024584190919995308,0.01370999962091446
0.8820000290870667,0.010049999691545963,0.02520746737718582,0.01152000017464161
0.8830000162124634,0.009859999641776085,0.025841986760497093,0.008200000040233135
0.8840000033378601,0.009650000371038914,0.026388203725218773,0.00394000019878149
0.8849999904632568,0.009429999627172947,0.026892507448792458,-0.0010300000431016088
0.8859999775886536,0.009209999814629555,0.027369299903512,-0.006430000066757202
0.8870000243186951,0.008990000002086163,0.028051607310771942,-0.011939999647438526
0.8880000114440918,0.00875999964773655,0.02837926335632801,-0.01727999933063984
0.8889999985694885,0.008500000461935997,0.029052497819066048,-0.022120000794529915
0.8899999856948853,0.008190000429749489,0.0294053815305233,-0.026200000196695328
0.890999972820282,0.007809999864548445,0.02951223962008953,-0.02928999997675419
0.8920000195503235,0.007350000087171793,0.029254645109176636,-0.03125
0.8930000066757202,0.006769999861717224,0.0293408390134573,-0.03200000151991844
0.8939999938011169,0.006070000119507313,0.02928975597023964,-0.031539998948574066
0.8949999809265137,0.005260000005364418,0.028886402025818825,-0.029920000582933426
0.8960000276565552,0.0043299999088048935,0.028275370597839355,-0.027300000190734863
0.8970000147819519,0.003329999977722764,0.027073245495557785,-0.02387000061571598
0.8980000019073486,0.0022700000554323196,0.025803938508033752,-0.019899999722838402
0.8989999890327454,0.0012100000167265534,0.024232996627688408,-0.015690000727772713
0.8999999761581421,0.00019799999427050352,0.02262326516211033,-0.011479999870061874
0.9010000228881836,-0.0007099999929778278,0.020474256947636604,-0.007579999975860119
0.9020000100135803,-0.0014700000174343586,0.018258849158883095,-0.004230000078678131
0.902999997138977,-0.00203999993391335,0.01583334431052208,-0.0016599999507889152
0.9039999842643738,-0.0023900000378489494,0.013109453953802586,-6.440000288421288e-05
0.9049999713897705,-0.0024900001008063555,0.010007578879594803,0.0005169999785721302
0.906000018119812,-0.002360000042244792,0.006627559661865234,3.569999898900278e-05
0.9070000052452087,-0.0020200000144541264,0.0032837840262800455,-0.0014799999771639705
0.9079999923706055,-0.001500000013038516,-0.0008713838760741055,-0.00394000019878149
0.9089999794960022,-0.0008619999862276018,-0.00535697303712368,-0.007280000019818544
0.9100000262260437,-0.00015500000154133886,-0.009802796877920628,-0.011250000447034836
0.9110000133514404,0.0005450000171549618,-0.01466323621571064,-0.01568000018596649
0.9120000004768372,0.0011699999449774623,-0.019821658730506897,-0.0203699991106987
0.9129999876022339,0.0016599999507889152,-0.02534474991261959,-0.025140000507235527
0.9139999747276306,0.0019499999471008778,-0.030863884836435318,-0.029850000515580177
0.9150000214576721,0.0020200000144541264,-0.03685034066438675,-0.03432000055909157
0.9160000085830688,0.0018400000408291817,-0.042438212782144547,-0.03844999894499779
0.9169999957084656,0.0014100000262260437,-0.04846952483057976,-0.042180001735687256
0.9179999828338623,0.0007329999934881926,-0.05469941720366478,-0.045499999076128006
0.9190000295639038,-0.00015700000221841037,-0.06064027175307274,-0.04837999865412712
0.9200000166893005,-0.0012100000167265534,-0.06664538383483887,-0.05087000131607056
0.9210000038146973,-0.0023799999617040157,-0.07270556688308716,-0.05302000045776367
0.921999990940094,-0.003599999938160181,-0.07825039327144623,-0.054910000413656235
0.9229999780654907,-0.00482999999076128,-0.08365743607282639,-0.05657999962568283
0.9240000247955322,-0.006010000128298998,-0.08915431797504425,-0.05804000049829483
0.925000011920929,-0.007089999970048666,-0.09426527470350266,-0.05933000147342682
0.9259999990463257,-0.008019999600946903,-0.09862858802080154,-0.06049000099301338
0.9269999861717224,-0.008790000341832638,-0.10260194540023804,-0.06153000146150589
0.9279999732971191,-0.009379999712109566,-0.1058206707239151,-0.062380000948905945
0.9290000200271606,-0.00977999996393919,-0.10888507217168808,-0.0629199966788292
0.9300000071525574,-0.009990000165998936,-0.11109940707683563,-0.06312000006437302
0.9309999942779541,-0.010029999539256096,-0.11307864636182785,-0.06293000280857086
0.9319999814033508,-0.009920000098645687,-0.1141442358493805,-0.06230999901890755
0.9330000281333923,-0.009669999592006207,-0.11513696610927582,-0.061159998178482056
0.9340000152587891,-0.009320000186562538,-0.11518079042434692,-0.059369999915361404
0.9350000023841858,-0.0088900001719594,-0.1145644411444664,-0.05696000158786774
0.9359999895095825,-0.008410000242292881,-0.11339957267045975,-0.05397000163793564
0.9369999766349792,-0.007899999618530273,-0.11191496253013611,-0.05042999982833862
0.9380000233650208,-0.007379999849945307,-0.10991986840963364,-0.046390000730752945
0.9390000104904175,-0.00686000008136034,-0.10716410726308823,-0.041839998215436935
0.9399999976158142,-0.0063599999994039536,-0.10415859520435333,-0.036959998309612274
0.9409999847412109,-0.005890000145882368,-0.10103893280029297,-0.031849998980760574
0.9419999718666077,-0.00546000013127923,-0.09732059389352798,-0.0266100000590086
0.9430000185966492,-0.00506999995559454,-0.0936710387468338,-0.02133999951183796
0.9440000057220459,-0.004720000084489584,-0.08959495276212692,-0.01607999950647354
0.9449999928474426,-0.004410000052303076,-0.08579525351524353,-0.010990000329911709
0.9459999799728394,-0.004139999859035015,-0.08157713711261749,-0.006070000119507313
0.9470000267028809,-0.003909999970346689,-0.07802630960941315,-0.0013599999947473407
0.9480000138282776,-0.003710000077262521,-0.07393467426300049,0.003120000008493662
0.9490000009536743,-0.003530000103637576,-0.07010065764188766,0.007410000078380108
0.949999988079071,-0.003379999892786145,-0.06654863804578781,0.011409999802708626
0.9509999752044678,-0.0032500000670552254,-0.06309519708156586,0.015209999866783619
0.9520000219345093,-0.0031399999279528856,-0.05958055332303047,0.0188400000333786
0.953000009059906,-0.0030499999411404133,-0.05669403821229935,0.022280000150203705
0.9539999961853027,-0.002959999954327941,-0.053928472101688385,0.025529999285936356
0.9549999833106995,-0.002899999963119626,-0.051532160490751266,0.02848000079393387
0.9559999704360962,-0.002839999971911311,-0.0494498685002327,0.031129999086260796
0.9570000171661377,-0.00279000005684793,-0.04759397357702255,0.033440001308918
0.9580000042915344,-0.002739999908953905,-0.0460653081536293,0.035339999943971634
0.9589999914169312,-0.00267999991774559,-0.04468723013997078,0.03675999864935875
0.9599999785423279,-0.0026000000070780516,-0.04332773759961128,0.03751000016927719
0.9610000252723694,-0.0024999999441206455,-0.0427994541823864,0.0376100018620491
0.9620000123977661,-0.002360000042244792,-0.042546410113573074,0.037039998918771744
0.9629999995231628,-0.00215999991632998,-0.04218830168247223,0.0357699990272522
0.9639999866485596,-0.0019099999917671084,-0.041862715035676956,0.03386000171303749
0.9649999737739563,-0.0015899999998509884,-0.042164042592048645,0.031289998441934586
0.9660000205039978,-0.0012100000167265534,-0.04277217760682106,0.02824000082910061
0.9670000076293945,-0.0007590000168420374,-0.04349778965115547,0.024870000779628754
0.9679999947547913,-0.00026000000070780516,-0.043876733630895615,0.02135000005364418
0.968999981880188,0.0002690000110305846,-0.04463343322277069,0.01792999915778637
0.9700000286102295,0.0008040000102482736,-0.0452914759516716,0.014779999852180481
0.9710000157356262,0.0013200000394135714,-0.045789558440446854,0.012140000239014626
0.972000002861023,0.0017800000496208668,-0.04620231315493584,0.010209999978542328
0.9729999899864197,0.00215999991632998,-0.047277770936489105,0.009150000289082527
0.9739999771118164,0.002420000033453107,-0.04781941697001457,0.009100000374019146
0.9750000238418579,0.002529999939724803,-0.048521608114242554,0.010099999606609344
0.9760000109672546,0.0024800000246614218,-0.04887663200497627,0.012129999697208405
0.9769999980926514,0.0022700000554323196,-0.04922080785036087,0.015119999647140503
0.9779999852180481,0.0018899999558925629,-0.0492030531167984,0.018950000405311584
0.9789999723434448,0.0013599999947473407,-0.0496172197163105,0.023420000448822975
0.9800000190734863,0.0007070000283420086,-0.04950885474681854,0.028289999812841415
0.9810000061988831,-3.550000110408291e-05,-0.04926629364490509,0.03328999876976013
0.9819999933242798,-0.0008249999955296516,-0.04886258766055107,0.03815999999642372
0.9829999804496765,-0.0016199999954551458,-0.048408057540655136,0.04262999817728996
0.984000027179718,-0.0023900000378489494,-0.04751025512814522,0.046459998935461044
0.9850000143051147,-0.0030799999367445707,-0.04675877094268799,0.04944999888539314
0.9860000014305115,-0.0036800000816583633,-0.04558965563774109,0.0514799989759922
0.9869999885559082,-0.00418000016361475,-0.044333554804325104,0.0524899996817112
0.9879999756813049,-0.004559999797493219,-0.04336860403418541,0.05245999991893768
0.9890000224113464,-0.004819999914616346,-0.042280882596969604,0.051430001854896545
0.9900000095367432,-0.004999999888241291,-0.04102000221610069,0.04952999949455261
0.9909999966621399,-0.005119999870657921,-0.03977147489786148,0.04693000018596649
0.9919999837875366,-0.005210000090301037,-0.03830638900399208,0.04382999986410141
0.9929999709129333,-0.005289999768137932,-0.03689156100153923,0.04044000059366226
0.9940000176429749,-0.005379999987781048,-0.03580330312252045,0.03694000095129013
0.9950000047683716,-0.005499999970197678,-0.03460737690329552,0.03351999819278717
0.9959999918937683,-0.005669999867677689,-0.03325057402253151,0.03034999966621399
0.996999979019165,-0.005859999917447567,-0.03229900076985359,0.027529999613761902
0.9980000257492065,-0.006070000119507313,-0.031364187598228455,0.025140000507235527
0.9990000128746033,-0.006260000169277191,-0.031004315242171288,0.02322000078856945
1.0,-0.006399999838322401,-0.030656905844807625,0.021740000694990158
1.0010000467300415,-0.006440000142902136,-0.030702777206897736,0.020679999142885208
1.0019999742507935,-0.0063599999994039536,-0.030932271853089333,0.019990000873804092
1.003000020980835,-0.00610999995842576,-0.0313909538090229,0.019589999690651894
1.003999948501587,-0.005690000019967556,-0.03176756948232651,0.019440000876784325
1.0049999952316284,-0.005080000031739473,-0.03251571208238602,0.01948999986052513
1.00600004196167,-0.004290000069886446,-0.03384250029921532,0.019740000367164612
1.0069999694824219,-0.0033599999733269215,-0.035418301820755005,0.020169999450445175
1.0080000162124634,-0.0023300000466406345,-0.03730781003832817,0.020840000361204147
1.0089999437332153,-0.0012499999720603228,-0.03901735693216324,0.02175999991595745
1.0099999904632568,-0.0001849999971454963,-0.0409475676715374,0.023000000044703484
1.0110000371932983,0.0007869999972172081,-0.042997606098651886,0.024560000747442245
1.0119999647140503,0.0015999999595806003,-0.04487237334251404,0.026440000161528587
1.0130000114440918,0.0022100000642240047,-0.04666849225759506,0.028669999912381172
1.0140000581741333,0.002570000011473894,-0.04800586774945259,0.031209999695420265
1.0149999856948853,0.002630000002682209,-0.04915238171815872,0.03390999883413315
1.0160000324249268,0.002420000033453107,-0.04964663088321686,0.03658000007271767
1.0169999599456787,0.001930000027641654,-0.04971890151500702,0.039009999483823776
1.0180000066757202,0.0012000000569969416,-0.04940062761306763,0.041039999574422836
1.0190000534057617,0.00030300000798888505,-0.04804564639925957,0.04253999888896942
1.0199999809265137,-0.0007140000234358013,-0.04501820355653763,0.043230000883340836
1.0210000276565552,-0.0017600000137463212,-0.04182921722531319,0.04301000013947487
1.0219999551773071,-0.0027600000612437725,-0.037183329463005066,0.04177999868988991
1.0230000019073486,-0.003640000009909272,-0.0310787633061409,0.03957999870181084
1.0240000486373901,-0.0043299999088048935,-0.023761723190546036,0.036559998989105225
1.024999976158142,-0.004780000075697899,-0.01655264012515545,0.033070001751184464
1.0260000228881836,-0.004939999897032976,-0.007842627353966236,0.029570000246167183
1.0269999504089355,-0.004800000227987766,0.001103009795770049,0.026520000770688057
1.027999997138977,-0.004370000213384628,0.010748238302767277,0.024390000849962234
1.0290000438690186,-0.0036700000055134296,0.02001762017607689,0.023439999669790268
1.0299999713897705,-0.002749999985098839,0.029551086947321892,0.024639999493956566
1.031000018119812,-0.0016700000269338489,0.039287958294153214,0.02850000001490116
1.031999945640564,-0.00048099999548867345,0.04798146337270737,0.035360001027584076
1.0329999923706055,0.0007210000185295939,0.05507297068834305,0.045159999281167984
1.034000039100647,0.0018400000408291817,0.06074043735861778,0.057089999318122864
1.034999966621399,0.00279999990016222,0.06458801031112671,0.07145000249147415
1.0360000133514404,0.0035500000230968,0.06530728936195374,0.08748999983072281
1.0369999408721924,0.004019999876618385,0.06254959851503372,0.10429000109434128
1.0379999876022339,0.0041600000113248825,0.05723844841122627,0.12037000060081482
1.0390000343322754,0.003909999970346689,0.0482424721121788,0.13338999450206757
1.0399999618530273,0.003280000062659383,0.03542313352227211,0.14246000349521637
1.0410000085830688,0.0022799998987466097,0.018060900270938873,0.14584000408649445
1.0420000553131104,0.0009200000204145908,-0.0025616867933422327,0.1419599950313568
1.0429999828338623,-0.0007580000092275441,-0.027143605053424835,0.12919999659061432
1.0440000295639038,-0.0027199999894946814,-0.054833974689245224,0.10577999800443649
1.0449999570846558,-0.004889999981969595,-0.08720622211694717,0.07141999900341034
1.0460000038146973,-0.007180000189691782,-0.12101421505212784,0.02572000026702881
1.0470000505447388,-0.00953999999910593,-0.15837286412715912,-0.031129999086260796
1.0479999780654907,-0.011889999732375145,-0.19690176844596863,-0.09841000288724899
1.0490000247955322,-0.014159999787807465,-0.2364935576915741,-0.1747799962759018
1.0499999523162842,-0.016270000487565994,-0.2759256362915039,-0.25804001092910767
1.0509999990463257,-0.01819000020623207,-0.3157508373260498,-0.34595999121665955
1.0520000457763672,-0.01988000050187111,-0.3535919785499573,-0.43588998913764954
1.0529999732971191,-0.021299999207258224,-0.389743447303772,-0.5247099995613098
1.0540000200271606,-0.022439999505877495,-0.42246946692466736,-0.6087200045585632
1.0549999475479126,-0.0232900008559227,-0.450935423374176,-0.6846699714660645
1.055999994277954,-0.023879999294877052,-0.47368744015693665,-0.7500600218772888
1.0570000410079956,-0.024229999631643295,-0.4926269054412842,-0.8025699853897095
1.0579999685287476,-0.02435999922454357,-0.5051130056381226,-0.8399199843406677
1.059000015258789,-0.024289999157190323,-0.511429488658905,-0.8599299788475037
1.059999942779541,-0.02404000051319599,-0.5120812654495239,-0.861810028553009
1.0609999895095825,-0.023669999092817307,-0.5072486400604248,-0.8461999893188477
1.062000036239624,-0.02319999970495701,-0.4963878095149994,-0.814050018787384
1.062999963760376,-0.02264999970793724,-0.47982776165008545,-0.7664899826049805
1.0640000104904175,-0.02201000042259693,-0.45844021439552307,-0.7049800157546997
1.065000057220459,-0.021299999207258224,-0.4320831596851349,-0.6320599913597107
1.065999984741211,-0.02053000032901764,-0.40194329619407654,-0.5512999892234802
1.0670000314712524,-0.01971999928355217,-0.36830398440361023,-0.46595001220703125
1.0679999589920044,-0.018869999796152115,-0.33196553587913513,-0.37893998622894287
1.069000005722046,-0.01795000024139881,-0.29541948437690735,-0.29304999113082886
1.0700000524520874,-0.016990000382065773,-0.2576840817928314,-0.2112099975347519
1.0709999799728394,-0.01600000075995922,-0.22037065029144287,-0.13607999682426453
1.0720000267028809,-0.01498000044375658,-0.1829635053873062,-0.06960000097751617
1.0729999542236328,-0.01396000012755394,-0.14836260676383972,-0.013050000183284283
1.0740000009536743,-0.012930000200867653,-0.11558569222688675,0.03286999836564064
1.0750000476837158,-0.011909999884665012,-0.08560498058795929,0.06756000220775604
1.0759999752044678,-0.010929999873042107,-0.05778464674949646,0.09167999774217606
1.0770000219345093,-0.009979999624192715,-0.034342534840106964,0.10610000044107437
1.0779999494552612,-0.009069999679923058,-0.012876331806182861,0.1119299978017807
1.0789999961853027,-0.008190000429749489,0.004343725275248289,0.11066000163555145
1.0800000429153442,-0.007350000087171793,0.018540602177381516,0.10321000218391418
1.0809999704360962,-0.006550000049173832,0.029020417481660843,0.09194999933242798
1.0820000171661377,-0.005750000011175871,0.03709331154823303,0.07861000299453735
1.0829999446868896,-0.0049600000493228436,0.04237942397594452,0.06449999660253525
1.0839999914169312,-0.0041600000113248825,0.045923370867967606,0.05087000131607056
1.0850000381469727,-0.003379999892786145,0.04707145318388939,0.037870001047849655
1.0859999656677246,-0.002589999930933118,0.04634862020611763,0.026890000328421593
1.0870000123977661,-0.0018100000452250242,0.044676367193460464,0.018479999154806137
1.0880000591278076,-0.0010499999625608325,0.04271881282329559,0.012659999541938305
1.0889999866485596,-0.0003389999910723418,0.039795517921447754,0.00930000003427267
1.090000033378601,0.0002680000034160912,0.03658989071846008,0.00749000022187829
1.090999960899353,0.0007559999939985573,0.034260090440511703,0.007269999943673611
1.0920000076293945,0.0010999999940395355,0.032061316072940826,0.008299999870359898
1.093000054359436,0.0012600000482052565,0.029410550370812416,0.010089999996125698
1.093999981880188,0.0012400000123307109,0.027572166174650192,0.012190000154078007
1.0950000286102295,0.0010000000474974513,0.026406871154904366,0.014000000432133675
1.0959999561309814,0.0005729999975301325,0.025210054591298103,0.015399999916553497
1.097000002861023,-1.8200000340584666e-05,0.02470879629254341,0.01631000079214573
1.0980000495910645,-0.0007340000011026859,0.02443511039018631,0.016759999096393585
1.0989999771118164,-0.0015200000489130616,0.024829577654600143,0.01680999994277954
1.100000023841858,-0.002319999970495701,0.025457320734858513,0.016669999808073044
1.1009999513626099,-0.0030700000934302807,0.02608466148376465,0.01647000014781952
1.1019999980926514,-0.0036899999249726534,0.02671676129102707,0.01641000062227249
1.1030000448226929,-0.004120000172406435,0.02730591408908367,0.016720000654459
1.1039999723434448,-0.00431999983265996,0.028243647888302803,0.017559999600052834
1.1050000190734863,-0.0042500002309679985,0.028826111927628517,0.019109999760985374
1.1059999465942383,-0.0038999998942017555,0.029366742819547653,0.021330000832676888
1.1069999933242798,-0.003280000062659383,0.03031875379383564,0.024129999801516533
1.1080000400543213,-0.002400000113993883,0.030784383416175842,0.027380000799894333
1.1089999675750732,-0.0013299999991431832,0.030974889174103737,0.030899999663233757
1.1100000143051147,-0.00011899999663000926,0.03138687089085579,0.03448000177741051
1.1109999418258667,0.0011599999852478504,0.03175724297761917,0.0378899984061718
1.1119999885559082,0.002420000033453107,0.032017793506383896,0.04089999943971634
1.1130000352859497,0.003590000094845891,0.03202877193689346,0.04326999932527542
1.1139999628067017,0.0045900000259280205,0.032351501286029816,0.04481000080704689
1.1150000095367432,0.00535999983549118,0.03185013681650162,0.045419998466968536
1.1160000562667847,0.005849999841302633,0.03143996372818947,0.04510999843478203
1.1169999837875366,0.006049999967217445,0.031346395611763,0.04390000179409981
1.1180000305175781,0.005940000060945749,0.03110066056251526,0.04188999906182289
1.11899995803833,0.005530000198632479,0.030654169619083405,0.03917999938130379
1.1200000047683716,0.0048500001430511475,0.029975024983286858,0.03596999868750572
1.121000051498413,0.00395999988541007,0.029022417962551117,0.03246000036597252
1.121999979019165,0.002899999963119626,0.028049476444721222,0.028869999572634697
1.1230000257492065,0.0017500000540167093,0.02704651467502117,0.025350000709295273
1.1239999532699585,0.0005569999921135604,0.026166068390011787,0.022050000727176666
1.125,-0.0006000000284984708,0.025084329769015312,0.01909000054001808
1.1260000467300415,-0.0016599999507889152,0.02402440831065178,0.016529999673366547
1.1269999742507935,-0.002589999930933118,0.02273140661418438,0.014379999600350857
1.128000020980835,-0.003329999977722764,0.02117585577070713,0.012609999626874924
1.128999948501587,-0.0038799999747425318,0.01956929638981819,0.011149999685585499
1.1299999952316284,-0.004220000002533197,0.017834331840276718,0.009929999709129333
1.13100004196167,-0.004350000061094761,0.015822753310203552,0.008870000019669533
1.1319999694824219,-0.004310000222176313,0.013845499604940414,0.007860000245273113
1.1330000162124634,-0.004100000020116568,0.012183488346636295,0.006829999852925539
1.1339999437332153,-0.0037799999117851257,0.010359596461057663,0.005739999935030937
1.1349999904632568,-0.003370000049471855,0.008575402200222015,0.0045900000259280205
1.1360000371932983,-0.0029299999587237835,0.006981376092880964,0.003370000049471855
1.1369999647140503,-0.0024999999441206455,0.005568385124206543,0.0021299999207258224
1.1380000114440918,-0.0021100000012665987,0.003907243255525827,0.0009190000128000975
1.1390000581741333,-0.0017800000496208668,0.0025086149107664824,-0.00017499999376013875
1.1399999856948853,-0.0015399999683722854,0.001398921012878418,-0.0010300000431016088
1.1410000324249268,-0.0013899999903514981,-6.581644993275404e-05,-0.0016299999551847577
1.1419999599456787,-0.001339999958872795,-0.001317179179750383,-0.0019099999917671084
1.1430000066757202,-0.0013599999947473407,-0.002617218066006899,-0.0018400000408291817
1.1440000534057617,-0.0014199999859556556,-0.003400748362764716,-0.0014100000262260437
1.1449999809265137,-0.001500000013038516,-0.0042106993496418,-0.0006350000039674342
1.1460000276565552,-0.001550000044517219,-0.0045233010314404964,0.0003859999997075647
1.1469999551773071,-0.0015300000086426735,-0.0049931625835597515,0.001560000004246831
1.1480000019073486,-0.0014100000262260437,-0.005254639778286219,0.0027699999045580626
1.1490000486373901,-0.0011500000255182385,-0.005394847597926855,0.00394000019878149
1.149999976158142,-0.000737000023946166,-0.005013980437070131,0.0049600000493228436
1.1510000228881836,-0.0001539999939268455,-0.00435428274795413,0.0057299998588860035
1.1519999504089355,0.0005920000257901847,-0.003348204307258129,0.006200000178068876
1.152999997138977,0.0014799999771639705,-0.002497372217476368,0.006339999847114086
1.1540000438690186,0.0024800000246614218,-0.0011224498739466071,0.0061599998734891415
1.1549999713897705,0.003530000103637576,0.00023803010117262602,0.005739999935030937
1.156000018119812,0.004579999949783087,0.0018978837179020047,0.005150000099092722
1.156999945640564,0.00558000011369586,0.0037007746286690235,0.004519999958574772
1.1579999923706055,0.006459999829530716,0.0056446916423738,0.00395999988541007
1.159000039100647,0.007160000037401915,0.007697513792663813,0.0035800000187009573
1.159999966621399,0.0076299998909235,0.010030732490122318,0.0035200000274926424
1.1610000133514404,0.007840000092983246,0.012559646740555763,0.0038499999791383743
1.1619999408721924,0.007770000025629997,0.015258129686117172,0.004619999788701534
1.1629999876022339,0.007430000230669975,0.017781101167201996,0.005830000154674053
1.1640000343322754,0.006819999776780605,0.020301643759012222,0.007410000078380108
1.1649999618530273,0.005969999823719263,0.022801058366894722,0.009270000271499157
1.1660000085830688,0.0049600000493228436,0.025116654112935066,0.011289999820291996
1.1670000553131104,0.003819999983534217,0.02708902209997177,0.013290000148117542
1.1679999828338623,0.002630000002682209,0.028829336166381836,0.01508999988436699
1.1690000295639038,0.0014400000218302011,0.031053146347403526,0.01647000014781952
1.1699999570846558,0.0003129999968223274,0.03306462988257408,0.017260000109672546
1.1710000038146973,-0.0006960000027902424,0.03487587347626686,0.017340000718832016
1.1720000505447388,-0.001550000044517219,0.036755096167325974,0.016610000282526016
1.1729999780654907,-0.002240000059828162,0.038221511989831924,0.01501999981701374
1.1740000247955322,-0.002739999908953905,0.03968670591711998,0.012550000101327896
1.1749999523162842,-0.003060000017285347,0.04050639644265175,0.009309999644756317
1.1759999990463257,-0.003229999914765358,0.041145067662000656,0.005439999978989363
1.1770000457763672,-0.003269999986514449,0.0413692407310009,0.001120000029914081
1.1779999732971191,-0.0032099999953061342,0.04184678569436073,-0.00343999988399446
1.1790000200271606,-0.0030799999367445707,0.041702888906002045,-0.008030000142753124
1.1799999475479126,-0.0029200001154094934,0.0414838045835495,-0.012369999662041664
1.180999994277954,-0.0027600000612437725,0.04086647927761078,-0.016249999403953552
1.1820000410079956,-0.0026100000832229853,0.040241654962301254,-0.019500000402331352
1.1829999685287476,-0.0024999999441206455,0.03956913203001022,-0.021970000118017197
1.184000015258789,-0.002409999957308173,0.03860926628112793,-0.0236200001090765
1.184999942779541,-0.0023399998899549246,0.03711609169840813,-0.024369999766349792
1.1859999895095825,-0.0022899999748915434,0.035636890679597855,-0.024299999698996544
1.187000036239624,-0.0022499999031424522,0.0343615747988224,-0.023499999195337296
1.187999963760376,-0.0021899999119341373,0.032635822892189026,-0.022140000015497208
1.1890000104904175,-0.0021100000012665987,0.03096318058669567,-0.02043999917805195
1.190000057220459,-0.001990000018849969,0.02917887642979622,-0.018549999222159386
1.190999984741211,-0.001829999964684248,0.027547327801585197,-0.01672999933362007
1.1920000314712524,-0.0016199999954551458,0.025329481810331345,-0.015180000104010105
1.1929999589920044,-0.0013699999544769526,0.023413101211190224,-0.014089999720454216
1.194000005722046,-0.0010999999940395355,0.02138436585664749,-0.013629999943077564
1.1950000524520874,-0.0008159999852068722,0.01933787763118744,-0.01384000014513731
1.1959999799728394,-0.0005329999839887023,0.017563721165060997,-0.014790000393986702
1.1970000267028809,-0.0002730000123847276,0.016085505485534668,-0.01647000014781952
1.1979999542236328,-5.230000169831328e-05,0.014916853979229927,-0.01882000081241131
1.1990000009536743,0.00011300000187475234,0.013669797219336033,-0.021770000457763672
1.2000000476837158,0.00020799999765586108,0.01235225796699524,-0.025100000202655792
1.2009999752044678,0.00022600000374950469,0.011147068813443184,-0.02865000069141388
1.2020000219345093,0.0001630000042496249,0.010154588147997856,-0.032269999384880066
1.2029999494552612,2.1100000594742596e-05,0.009611793793737888,-0.03579000011086464
1.2039999961853027,-0.0001939999929163605,0.009079298004508018,-0.039080001413822174
1.2050000429153442,-0.0004769999941345304,0.008645279332995415,-0.04194999858736992
1.2059999704360962,-0.0008120000129565597,0.008560816757380962,-0.04430999979376793
1.2070000171661377,-0.001180000021122396,0.00842286553233862,-0.04611000046133995
1.2079999446868896,-0.0015699999639764428,0.008378028869628906,-0.0473800003528595
1.2089999914169312,-0.0019499999471008778,0.008154747076332569,-0.048179998993873596
1.2100000381469727,-0.002309999894350767,0.00832710787653923,-0.04851999878883362
1.2109999656677246,-0.0026199999265372753,0.008359860628843307,-0.04853999987244606
1.2120000123977661,-0.002859999891370535,0.008393988944590092,-0.04836999997496605
1.2130000591278076,-0.003019999945536256,0.008043412119150162,-0.048190001398324966
1.2139999866485596,-0.0030700000934302807,0.0073534101247787476,-0.04820000007748604
1.215000033378601,-0.003010000102221966,0.0070368340238928795,-0.04845999926328659
1.215999960899353,-0.0028299998957663774,0.006690747104585171,-0.049150001257658005
1.2170000076293945,-0.0025400000158697367,0.00580255500972271,-0.05037999898195267
1.218000054359436,-0.002139999996870756,0.004409036133438349,-0.0522099994122982
1.218999981880188,-0.0016599999507889152,0.0032601156271994114,-0.054740000516176224
1.2200000286102295,-0.0011099999537691474,0.0015917083946987987,-0.05787000060081482
1.2209999561309814,-0.0005189999938011169,-0.00014117035607341677,-0.061569999903440475
1.222000002861023,6.910000229254365e-05,-0.0023090862669050694,-0.06577000021934509
1.2230000495910645,0.0006210000137798488,-0.004236724693328142,-0.07035999745130539
1.2239999771118164,0.0010999999940395355,-0.006606930401176214,-0.07524000108242035
1.225000023841858,0.0014700000174343586,-0.009252679534256458,-0.08015000075101852
1.2259999513626099,0.0017099999822676182,-0.01208662148565054,-0.08496999740600586
1.2269999980926514,0.0017999999690800905,-0.014951109886169434,-0.08957000076770782
1.2280000448226929,0.0017399999778717756,-0.017862442880868912,-0.0938199982047081
1.2289999723434448,0.001509999972768128,-0.0210797768086195,-0.09762000292539597
1.2300000190734863,0.0011500000255182385,-0.023995013907551765,-0.10081999748945236
1.2309999465942383,0.0006779999821446836,-0.027073340490460396,-0.10341999679803848
1.2319999933242798,0.00012700000661425292,-0.030027063563466072,-0.1054299995303154
1.2330000400543213,-0.0004670000053010881,-0.033113185316324234,-0.10689999908208847
1.2339999675750732,-0.001069999998435378,-0.03611839935183525,-0.10789000242948532
1.2350000143051147,-0.0016400000313296914,-0.03896583244204521,-0.10842999815940857
1.2359999418258667,-0.00215999991632998,-0.04163680225610733,-0.10869999974966049
1.2369999885559082,-0.002589999930933118,-0.044337090104818344,-0.10881999880075455
1.2380000352859497,-0.0029299999587237835,-0.046772707253694534,-0.10892000049352646
1.2389999628067017,-0.003169999923557043,-0.049495212733745575,-0.10911999642848969
1.2400000095367432,-0.0033400000538676977,-0.05214754119515419,-0.10942000150680542
1.2410000562667847,-0.0034600000362843275,-0.05519336834549904,-0.10992000252008438
1.2419999837875366,-0.0035500000230968,-0.05807308852672577,-0.1106799989938736
1.2430000305175781,-0.003650000086054206,-0.06094928830862045,-0.11167000234127045
1.24399995803833,-0.0037799999117851257,-0.06380771100521088,-0.11288999766111374
1.2450000047683716,-0.003969999961555004,-0.06676163524389267,-0.11416000127792358
1.246000051498413,-0.004240000154823065,-0.07005564123392105,-0.11542999744415283
1.246999979019165,-0.004600000102072954,-0.07344237715005875,-0.1165900006890297
1.2480000257492065,-0.005040000192821026,-0.07656212151050568,-0.1175599992275238
1.2489999532699585,-0.005520000122487545,-0.07999364286661148,-0.11830999702215195
1.25,-0.006029999814927578,-0.08325303345918655,-0.11867000162601471
1.2510000467300415,-0.006519999820739031,-0.08699136972427368,-0.11862999945878983
1.2519999742507935,-0.006940000224858522,-0.09100527316331863,-0.11821000277996063
1.253000020980835,-0.007249999791383743,-0.09547293931245804,-0.11749999970197678
1.253999948501587,-0.007400000002235174,-0.09971850365400314,-0.11666999757289886
1.2549999952316284,-0.007329999934881926,-0.1040697693824768,-0.1157900020480156
1.25600004196167,-0.007029999978840351,-0.10825961083173752,-0.11507999897003174
1.2569999694824219,-0.006490000057965517,-0.11224395036697388,-0.11474999785423279
1.2580000162124634,-0.005710000172257423,-0.11604910343885422,-0.11501999944448471
1.2589999437332153,-0.004720000084489584,-0.1198098361492157,-0.11618000268936157
1.2599999904632568,-0.0035500000230968,-0.12283429503440857,-0.11834000051021576
1.2610000371932983,-0.002259999979287386,-0.1259775161743164,-0.12163999676704407
1.2619999647140503,-0.0009130000253207982,-0.12841758131980896,-0.12615999579429626
1.2630000114440918,0.00042699999175965786,-0.13089638948440552,-0.13192999362945557
1.2640000581741333,0.0016799999866634607,-0.13283666968345642,-0.1388700008392334
1.2649999856948853,0.0027600000612437725,-0.1347758024930954,-0.1467600017786026
1.2660000324249268,0.003640000009909272,-0.13564686477184296,-0.1553799957036972
1.2669999599456787,0.004240000154823065,-0.1366773098707199,-0.16444000601768494
1.2680000066757202,0.004550000187009573,-0.13704219460487366,-0.17359000444412231
1.2690000534057617,0.004519999958574772,-0.13727279007434845,-0.18242000043392181
1.2699999809265137,0.004170000087469816,-0.13666756451129913,-0.19047999382019043
1.2710000276565552,0.0035099999513477087,-0.13580580055713654,-0.19744999706745148
1.2719999551773071,0.002580000087618828,-0.13431282341480255,-0.20302000641822815
1.2730000019073486,0.0014299999456852674,-0.13271528482437134,-0.2069299966096878
1.2740000486373901,0.00010699999984353781,-0.13087546825408936,-0.20901000499725342
1.274999976158142,-0.0013099999632686377,-0.12879860401153564,-0.20914000272750854
1.2760000228881836,-0.0027600000612437725,-0.1264604777097702,-0.20744000375270844
1.2769999504089355,-0.0041600000113248825,-0.12394449859857559,-0.20410999655723572
1.277999997138977,-0.005450000055134296,-0.12119285017251968,-0.1993899941444397
1.2790000438690186,-0.006579999811947346,-0.11864042282104492,-0.19360999763011932
1.2799999713897705,-0.00750999990850687,-0.11580512672662735,-0.18714000284671783
1.281000018119812,-0.008200000040233135,-0.11329177021980286,-0.1805099993944168
1.281999945640564,-0.008630000054836273,-0.11025930941104889,-0.17417000234127045
1.2829999923706055,-0.008820000104606152,-0.10706935077905655,-0.16850000619888306
1.284000039100647,-0.00877000018954277,-0.10338909178972244,-0.1638299971818924
1.284999966621399,-0.00851999968290329,-0.10039989650249481,-0.1604200005531311
1.2860000133514404,-0.00810999982059002,-0.09709987789392471,-0.15846000611782074
1.2869999408721924,-0.007600000128149986,-0.09392492473125458,-0.15800000727176666
1.2879999876022339,-0.007029999978840351,-0.09092793613672256,-0.15895000100135803
1.2890000343322754,-0.0064500002190470695,-0.08812364935874939,-0.161080002784729
1.2899999618530273,-0.005900000222027302,-0.08513283729553223,-0.164110004901886
1.2910000085830688,-0.005439999978989363,-0.08238046616315842,-0.16767999529838562
1.2920000553131104,-0.005080000031739473,-0.07970824092626572,-0.17137999832630157
1.2929999828338623,-0.0048500001430511475,-0.07714381068944931,-0.17479999363422394
1.2940000295639038,-0.004720000084489584,-0.07416639477014542,-0.17750999331474304
1.2949999570846558,-0.004699999932199717,-0.0712660625576973,-0.17919999361038208
1.2960000038146973,-0.004739999771118164,-0.06867532432079315,-0.17958000302314758
1.2970000505447388,-0.004819999914616346,-0.06700637936592102,-0.17850999534130096
1.2979999780654907,-0.004889999981969595,-0.06504083424806595,-0.17591999471187592
1.2990000247955322,-0.004910000134259462,-0.06357285380363464,-0.17186999320983887
1.2999999523162842,-0.004840000066906214,-0.062083542346954346,-0.16662999987602234
1.3009999990463257,-0.004650000017136335,-0.06109614670276642,-0.16046999394893646
1.3020000457763672,-0.0043299999088048935,-0.06074880063533783,-0.1537500023841858
1.3029999732971191,-0.0038799999747425318,-0.0607416108250618,-0.14687000215053558
1.3040000200271606,-0.0033100000582635403,-0.060984935611486435,-0.1402300000190735
1.3049999475479126,-0.0026499999221414328,-0.0616060346364975,-0.13436000049114227
1.305999994277954,-0.0019399999873712659,-0.06245631352066994,-0.1295900046825409
1.3070000410079956,-0.0012400000123307109,-0.06350886821746826,-0.12620000541210175
1.3079999685287476,-0.0005910000181756914,-0.06513555347919464,-0.12434999644756317
1.309000015258789,-5.62999994144775e-05,-0.06687993556261063,-0.12404999881982803
1.309999942779541,0.0003100000030826777,-0.06843818724155426,-0.1253499984741211
1.3109999895095825,0.0004769999941345304,-0.06985156238079071,-0.12804999947547913
1.312000036239624,0.0004239999980200082,-0.07137446850538254,-0.131850004196167
1.312999963760376,0.00014600000577047467,-0.07269338518381119,-0.1363700032234192
1.3140000104904175,-0.00034699999378062785,-0.0736769363284111,-0.14106999337673187
1.315000057220459,-0.0010300000431016088,-0.07468236237764359,-0.14560000598430634
1.315999984741211,-0.0018500000005587935,-0.07492251694202423,-0.14945000410079956
1.3170000314712524,-0.0027699999045580626,-0.07510548830032349,-0.15218999981880188
1.3179999589920044,-0.003700000001117587,-0.07430674880743027,-0.15343999862670898
1.319000005722046,-0.004600000102072954,-0.07316907495260239,-0.15279999375343323
1.3200000524520874,-0.005410000216215849,-0.07134311646223068,-0.15023000538349152
1.3209999799728394,-0.0060800001956522465,-0.06919703632593155,-0.1456100046634674
1.3220000267028809,-0.006579999811947346,-0.06623730808496475,-0.13898999989032745
1.3229999542236328,-0.006889999844133854,-0.06254892796278,-0.13053999841213226
1.3240000009536743,-0.007000000216066837,-0.05835761874914169,-0.12044999748468399
1.3250000476837158,-0.006909999996423721,-0.05402607098221779,-0.10922999680042267
1.3259999752044678,-0.006659999955445528,-0.049264468252658844,-0.09724000096321106
1.3270000219345093,-0.0062699997797608376,-0.04399977996945381,-0.08494000136852264
1.3279999494552612,-0.005779999773949385,-0.038320958614349365,-0.07276999950408936
1.3289999961853027,-0.0052200001664459705,-0.03255428373813629,-0.061159998178482056
1.3300000429153442,-0.004619999788701534,-0.0269075408577919,-0.05065000057220459
1.3309999704360962,-0.004000000189989805,-0.021343497559428215,-0.04152999818325043
1.3320000171661377,-0.0034000000450760126,-0.015656523406505585,-0.034040000289678574
1.3329999446868896,-0.0028099999763071537,-0.009971515275537968,-0.028349999338388443
1.3339999914169312,-0.0022499999031424522,-0.004835746716707945,-0.02450999990105629
1.3350000381469727,-0.0017000000225380063,0.00017718183516990393,-0.022619999945163727
1.3359999656677246,-0.0011599999852478504,0.004722290672361851,-0.02250000089406967
1.3370000123977661,-0.0006189999985508621,0.009083124808967113,-0.023919999599456787
1.3380000591278076,-7.789999654050916e-05,0.012870973907411098,-0.02662999927997589
1.3389999866485596,0.0004729999927803874,0.016657408326864243,-0.030230000615119934
1.340000033378601,0.001019999966956675,0.019854489713907242,-0.03452000021934509
1.340999960899353,0.0015699999639764428,0.022780299186706543,-0.03903999924659729
1.3420000076293945,0.0020800000056624413,0.02497367188334465,-0.043379999697208405
1.343000054359436,0.0025599999353289604,0.027221867814660072,-0.04723000153899193
1.343999981880188,0.0029700000304728746,0.028978053480386734,-0.050209999084472656
1.3450000286102295,0.003280000062659383,0.03045222908258438,-0.0522099994122982
1.3459999561309814,0.0034799999557435513,0.03176949545741081,-0.052969999611377716
1.347000002861023,0.0035500000230968,0.032764896750450134,-0.05232999846339226
1.3480000495910645,0.0035000001080334187,0.03366456180810928,-0.050269998610019684
1.3489999771118164,0.003329999977722764,0.034173864871263504,-0.046790000051259995
1.350000023841858,0.0030499999411404133,0.03460177034139633,-0.04210999980568886
1.3509999513626099,0.00267999991774559,0.03488347679376602,-0.0363599993288517
1.3519999980926514,0.0022799998987466097,0.03503501042723656,-0.029759999364614487
1.3530000448226929,0.001879999996162951,0.034778349101543427,-0.0225600004196167
1.3539999723434448,0.0015200000489130616,0.034413669258356094,-0.015069999732077122
1.3550000190734863,0.0012499999720603228,0.03383002430200577,-0.007670000195503235
1.3559999465942383,0.0010999999940395355,0.03325297683477402,-0.0006900000153109431
1.3569999933242798,0.0011099999537691474,0.03244783729314804,0.005609999876469374
1.3580000400543213,0.0013000000035390258,0.031659677624702454,0.010970000177621841
1.3589999675750732,0.0016700000269338489,0.03065851889550686,0.015209999866783619
1.3600000143051147,0.002219999907538295,0.029493294656276703,0.0181099995970726
1.3609999418258667,0.0029100000392645597,0.028416266664862633,0.019610000774264336
1.3619999885559082,0.003719999920576811,0.02719472162425518,0.019740000367164612
1.3630000352859497,0.004610000178217888,0.025795351713895798,0.01858000084757805
1.3639999628067017,0.005530000198632479,0.024393854662775993,0.0163199994713068
1.3650000095367432,0.006399999838322401,0.02320132777094841,0.01310999970883131
1.3660000562667847,0.007199999876320362,0.02179369516670704,0.009279999881982803
1.3669999837875366,0.007860000245273113,0.020532742142677307,0.005160000175237656
1.3680000305175781,0.008340000174939632,0.01906263269484043,0.0010900000343099236
1.36899995803833,0.008609999902546406,0.018041007220745087,-0.0025400000158697367
1.3700000047683716,0.00863999966531992,0.01700335554778576,-0.005499999970197678
1.371000051498413,0.008440000005066395,0.016057342290878296,-0.007420000154525042
1.371999979019165,0.008009999990463257,0.015075142495334148,-0.008089999668300152
1.3730000257492065,0.007379999849945307,0.01470169611275196,-0.007360000163316727
1.3739999532699585,0.006560000125318766,0.014141836203634739,-0.005140000022947788
1.375,0.005619999952614307,0.013827556744217873,-0.0015200000489130616
1.3760000467300415,0.0045900000259280205,0.013412782922387123,0.0034000000450760126
1.3769999742507935,0.003539999946951866,0.013588898815214634,0.009440000168979168
1.378000020980835,0.002529999939724803,0.013754752464592457,0.01631000079214573
1.378999948501587,0.0015800000401213765,0.01421541441231966,0.023649999871850014
1.3799999952316284,0.0007580000092275441,0.014550519175827503,0.031039999797940254
1.38100004196167,9.249999857274815e-05,0.014913056045770645,0.03809000179171562
1.3819999694824219,-0.00039500001003034413,0.015524492599070072,0.044429998844861984
1.3830000162124634,-0.0006960000027902424,0.016203278675675392,0.049710001796483994
1.3839999437332153,-0.0008190000080503523,0.01690247654914856,0.053630001842975616
1.3849999904632568,-0.0007800000021234155,0.01754864864051342,0.05595000088214874
1.3860000371932983,-0.0006140000186860561,0.01818961836397648,0.05657000094652176
1.3869999647140503,-0.00036199999158270657,0.01867266185581684,0.055479999631643295
1.3880000114440918,-7.01000026310794e-05,0.019039953127503395,0.05276999995112419
1.3890000581741333,0.00021699999342672527,0.019682684913277626,0.04864000156521797
1.3899999856948853,0.000455000001238659,0.020132683217525482,0.04332000017166138
1.3910000324249268,0.0005990000208839774,0.02048685774207115,0.03720000013709068
1.3919999599456787,0.0006200000061653554,0.02072596736252308,0.03067000024020672
1.3930000066757202,0.0005039999959990382,0.020986486226320267,0.024129999801516533
1.3940000534057617,0.0002530000056140125,0.021173734217882156,0.01802000030875206
1.3949999809265137,-0.00011500000255182385,0.021127741783857346,0.012670000083744526
1.3960000276565552,-0.000577000027988106,0.021148236468434334,0.008440000005066395
1.3969999551773071,-0.0010999999940395355,0.0209488607943058,0.005570000037550926
1.3980000019073486,-0.0016199999954551458,0.020877031609416008,0.004220000002533197
1.3990000486373901,-0.002099999925121665,0.02071419730782509,0.004449999891221523
1.399999976158142,-0.002469999948516488,0.020312845706939697,0.006219999864697456
1.4010000228881836,-0.0027000000700354576,0.01986372098326683,0.009410000406205654
1.4019999504089355,-0.002749999985098839,0.01952940970659256,0.013810000382363796
1.402999997138977,-0.0026000000070780516,0.019150754436850548,0.019139999523758888
1.4040000438690186,-0.002240000059828162,0.01856136880815029,0.025059999898076057
1.4049999713897705,-0.0016899999463930726,0.018246673047542572,0.03125
1.406000018119812,-0.0009689999860711396,0.017867393791675568,0.03734000027179718
1.406999945640564,-0.00012399999832268804,0.01759374886751175,0.04303000122308731
1.4079999923706055,0.0007929999846965075,0.017127664759755135,0.04803000018000603
1.409000039100647,0.0017300000181421638,0.016759952530264854,0.05203000083565712
1.409999966621399,0.0026100000832229853,0.0163603313267231,0.054919999092817307
1.4110000133514404,0.0034000000450760126,0.016181068494915962,0.05657999962568283
1.4119999408721924,0.004029999952763319,0.016196858137845993,0.05697999894618988
1.4129999876022339,0.004490000195801258,0.01601686142385006,0.056129999458789825
1.4140000343322754,0.004749999847263098,0.015894146636128426,0.05407999828457832
1.4149999618530273,0.0047900001518428326,0.015996480360627174,0.05099000036716461
1.4160000085830688,0.004639999940991402,0.016166523098945618,0.04701000079512596
1.4170000553131104,0.004310000222176313,0.016517657786607742,0.04235000163316727
1.4179999828338623,0.0038499999791383743,0.01686312071979046,0.03717000037431717
1.4190000295639038,0.0032999999821186066,0.017343973740935326,0.031690001487731934
1.4199999570846558,0.0027099999133497477,0.01754397712647915,0.026079999282956123
1.4210000038146973,0.0021100000012665987,0.01802164316177368,0.02053000032901764
1.4220000505447388,0.001560000004246831,0.018428487703204155,0.015180000104010105
1.4229999780654907,0.0010999999940395355,0.018871471285820007,0.010180000215768814
1.4240000247955322,0.0007590000168420374,0.019290724769234657,0.005679999943822622
1.4249999523162842,0.000547999981790781,0.01974240317940712,0.0017500000540167093
1.4259999990463257,0.00048499999684281647,0.020237039774656296,-0.001500000013038516
1.4270000457763672,0.0005709999823011458,0.02049526758491993,-0.004019999876618385
1.4279999732971191,0.0008019999950192869,0.02085043676197529,-0.00571999978274107
1.4290000200271606,0.0011699999449774623,0.021060828119516373,-0.006539999973028898
1.4299999475479126,0.0016599999507889152,0.021244315430521965,-0.0064199999906122684
1.430999994277954,0.0022499999031424522,0.02115856111049652,-0.005369999911636114
1.4320000410079956,0.0029299999587237835,0.021143579855561256,-0.003370000049471855
1.4329999685287476,0.0036700000055134296,0.020989643409848213,-0.0004689999914262444
1.434000015258789,0.004459999967366457,0.02085822820663452,0.003269999986514449
1.434999942779541,0.005270000081509352,0.020410099998116493,0.007819999940693378
1.4359999895095825,0.0060800001956522465,0.020044224336743355,0.01298999972641468
1.437000036239624,0.006870000157505274,0.01961933635175228,0.018619999289512634
1.437999963760376,0.0076299998909235,0.019184192642569542,0.02449999935925007
1.4390000104904175,0.008320000022649765,0.01859688013792038,0.030339999124407768
1.440000057220459,0.008919999934732914,0.018250638619065285,0.03593999892473221
1.440999984741211,0.009410000406205654,0.01776963472366333,0.04098999872803688
1.4420000314712524,0.00977999996393919,0.01720190979540348,0.04521999880671501
1.4429999589920044,0.010010000318288803,0.016519689932465553,0.04836000129580498
1.444000005722046,0.01006999984383583,0.015860021114349365,0.05017000064253807
1.4450000524520874,0.009979999624192715,0.015407850034534931,0.05048999935388565
1.4459999799728394,0.009739999659359455,0.014812532812356949,0.04921000078320503
1.4470000267028809,0.009359999559819698,0.014228280633687973,0.04633000120520592
1.4479999542236328,0.008860000409185886,0.013497878797352314,0.04187000170350075
1.4490000009536743,0.008259999565780163,0.01304841972887516,0.035989999771118164
1.4500000476837158,0.007590000052005053,0.01246698945760727,0.02889999933540821
1.4509999752044678,0.006889999844133854,0.012017172761261463,0.020919999107718468
1.4520000219345093,0.006200000178068876,0.011618614196777344,0.012419999577105045
