time,mixed,reconstructed,ground_truth
0.0010000000474974513,0.0021299999207258224,0.032677121460437775,-0.09301000088453293
0.007000000216066837,0.009039999917149544,0.03922785446047783,-0.09442999958992004
0.013000000268220901,0.013389999978244305,0.051761217415332794,-0.09630999714136124
0.01899999938905239,0.006539999973028898,0.05589699000120163,-0.09860000014305115
0.02500000037252903,-0.005960000213235617,0.048948563635349274,-0.10118000209331512
0.03099999949336052,-0.010619999840855598,0.041710760444402695,-0.1039699986577034
0.03700000047683716,-0.004579999949783087,0.04455571621656418,-0.10690999776124954
0.0430000014603138,0.003659999929368496,0.051843561232089996,-0.10993000119924545
0.04899999871850014,0.006120000034570694,0.05273812636733055,-0.11292000114917755
0.054999999701976776,0.0038999998942017555,0.04404978081583977,-0.11588999629020691
0.061000000685453415,0.0014400000218302011,0.03643086180090904,-0.11879000067710876
0.06700000166893005,0.0006060000159777701,0.03406354412436485,-0.12159000337123871
0.0729999989271164,0.003000000026077032,0.03442544862627983,-0.12424000352621078
0.07900000363588333,0.005810000002384186,0.03290469944477081,-0.12661999464035034
0.08500000089406967,0.0036200000904500484,0.029886825010180473,-0.12873999774456024
0.09099999815225601,-0.0007169999880716205,0.02552928775548935,-0.1305299997329712
0.09700000286102295,-0.0014900000533089042,0.02146439254283905,-0.13190999627113342
0.10300000011920929,0.0005849999724887311,0.019751600921154022,-0.13278000056743622
0.10899999737739563,0.00203999993391335,0.022203870117664337,-0.13297000527381897
0.11500000208616257,0.002259999979287386,0.027114657685160637,-0.13242000341415405
0.12099999934434891,0.004459999967366457,0.030596472322940826,-0.13106000423431396
0.12700000405311584,0.007439999841153622,0.032511260360479355,-0.12883000075817108
0.13300000131130219,0.004019999876618385,0.032925158739089966,-0.1256600022315979
0.13899999856948853,-0.004040000028908253,0.033297259360551834,-0.1214900016784668
0.14499999582767487,-0.006579999811947346,0.03227807581424713,-0.11638999730348587
0.1509999930858612,-0.0020600000862032175,0.028198016807436943,-0.11044999957084656
0.15700000524520874,0.0016299999551847577,0.017497630789875984,-0.10380999743938446
0.16300000250339508,-0.00039000000106170774,-0.0004120170196983963,-0.09661000221967697
0.16899999976158142,-0.003100000089034438,-0.020057199522852898,-0.08902999758720398
0.17499999701976776,-0.0006339999963529408,-0.033948056399822235,-0.08137000352144241
0.1809999942779541,0.00279999990016222,-0.04047997668385506,-0.07387000322341919
0.18700000643730164,0.002749999985098839,-0.04154888167977333,-0.06678000092506409
0.19300000369548798,0.0015200000489130616,-0.04153724014759064,-0.060339998453855515
0.19900000095367432,-0.0005380000220611691,-0.04280165582895279,-0.05471999943256378
0.20499999821186066,-0.003920000046491623,-0.045019447803497314,-0.050200000405311584
0.210999995470047,-0.006630000192672014,-0.04964101314544678,-0.046799998730421066
0.21699999272823334,-0.006909999996423721,-0.051748499274253845,-0.04458000138401985
0.22300000488758087,-0.0035699999425560236,-0.04978989437222481,-0.04351000115275383
0.2290000021457672,-0.0009919999865815043,-0.04603154584765434,-0.043480001389980316
0.23499999940395355,-0.004490000195801258,-0.04258110746741295,-0.04442000016570091
0.2409999966621399,-0.006300000008195639,-0.032616812735795975,-0.04608000069856644
0.24699999392032623,0.0018599999602884054,-0.013145764358341694,-0.048179998993873596
0.2529999911785126,0.009720000438392162,0.010202395729720592,-0.05048000067472458
0.2590000033378601,0.004730000160634518,0.02796199731528759,-0.052730001509189606
0.26499998569488525,-0.0047599999234080315,0.03669500723481178,-0.054760001599788666
0.2709999978542328,-0.0037400000728666782,0.038969747722148895,-0.05631000176072121
0.2770000100135803,0.0022299999836832285,0.034834377467632294,-0.05722999945282936
0.28299999237060547,0.0011899999808520079,0.029469594359397888,-0.05741000175476074
0.289000004529953,-8.440000237897038e-05,0.027368612587451935,-0.05683000013232231
0.29499998688697815,0.004269999917596579,0.031931258738040924,-0.05559999868273735
0.3009999990463257,0.005379999987781048,0.04090266302227974,-0.053780000656843185
0.3070000112056732,0.0023900000378489494,0.05317659676074982,-0.051500000059604645
0.31299999356269836,0.0016499999910593033,0.07315149903297424,-0.04893999919295311
0.3190000057220459,0.001500000013038516,0.10512346029281616,-0.04628000035881996
0.32499998807907104,0.0019199999514967203,0.12155559659004211,-0.04377000033855438
0.3310000002384186,0.00494999997317791,0.053860004991292953,-0.041600000113248825
0.3370000123977661,0.0024999999441206455,-0.1452365517616272,-0.039889998733997345
0.34299999475479126,-0.011479999870061874,-0.4019313156604767,-0.038750000298023224
0.3490000069141388,-0.02363000065088272,-0.5430878400802612,-0.03819999843835831
0.35499998927116394,-0.01800999976694584,-0.4598451554775238,-0.038270000368356705
0.3610000014305115,-0.002749999985098839,-0.2255007028579712,-0.03889000043272972
0.367000013589859,0.004660000093281269,-0.014909565448760986,-0.03994999825954437
0.37299999594688416,0.003719999920576811,0.07384849339723587,-0.041280001401901245
0.3790000081062317,0.0013299999991431832,0.0736851617693901,-0.042649999260902405
0.38499999046325684,0.0009180000051856041,0.054032593965530396,-0.04391000047326088
0.39100000262260437,0.004800000227987766,0.04148072376847267,-0.04481999948620796
0.3970000147819519,0.006029999814927578,0.0291141327470541,-0.04521999880671501
0.40299999713897705,-0.0017600000137463212,0.018275313079357147,-0.04493999853730202
0.4090000092983246,-0.0065899998880922794,0.014061180874705315,-0.043880000710487366
0.41499999165534973,0.00035099999513477087,0.014829609543085098,-0.04197999835014343
0.42100000381469727,0.006380000151693821,0.017914624884724617,-0.039250001311302185
0.4269999861717224,0.002899999963119626,0.023995399475097656,-0.035739999264478683
0.43299999833106995,0.00171999994199723,0.02926226705312729,-0.03156000003218651
0.4390000104904175,0.00953999999910593,0.03167956322431564,-0.026890000328421593
0.4449999928474426,0.011389999650418758,0.025565890595316887,-0.021970000118017197
0.45100000500679016,-9.029999637277797e-05,0.008866694755852222,-0.016990000382065773
0.4569999873638153,-0.00810999982059002,-0.01125908549875021,-0.012199999764561653
0.46299999952316284,-0.003659999929368496,-0.027167286723852158,-0.007819999940693378
0.4690000116825104,0.0023900000378489494,-0.031193049624562263,-0.004110000096261501
0.4749999940395355,0.0037400000728666782,-0.018471788614988327,-0.001290000043809414
0.48100000619888306,0.001970000099390745,0.006129222922027111,0.0004910000134259462
0.4869999885559082,-0.0028899998869746923,0.029829882085323334,0.0011500000255182385
0.49300000071525574,-0.007400000002235174,0.038665398955345154,0.0006230000290088356
0.49900001287460327,-0.004920000210404396,0.030859487131237984,-0.00107999995816499
0.5049999952316284,0.0029100000392645597,0.017462382093071938,-0.003930000122636557
0.5109999775886536,0.004910000134259462,0.01344058196991682,-0.007790000177919865
0.5170000195503235,-0.0009660000214353204,0.01821434497833252,-0.012500000186264515
0.5230000019073486,-0.0021100000012665987,0.022815890610218048,-0.017839999869465828
0.5289999842643738,0.0035699999425560236,0.016848435625433922,-0.023509999737143517
0.5350000262260437,0.0037400000728666782,0.004779649432748556,-0.02928999997675419
0.5410000085830688,-0.002940000034868717,-0.00785309448838234,-0.034860000014305115
0.546999990940094,-0.006659999955445528,-0.018927212804555893,-0.03994999825954437
0.5529999732971191,-0.0038499999791383743,-0.03142133355140686,-0.044280000030994415
0.5590000152587891,-0.0004180000105407089,-0.04816310107707977,-0.04757000133395195
0.5649999976158142,-0.0030900000128895044,-0.0703524500131607,-0.049630001187324524
0.5709999799728394,-0.007550000213086605,-0.08868084847927094,-0.05031000077724457
0.5770000219345093,-0.0047900001518428326,-0.09080424904823303,-0.0494999997317791
0.5830000042915344,0.0008709999965503812,-0.07260475307703018,-0.04718000069260597
0.5889999866485596,0.0002010000025620684,-0.04392431676387787,-0.04340000078082085
0.5950000286102295,-0.003379999892786145,-0.016912361606955528,-0.03826000168919563
0.6010000109672546,-0.002099999925121665,0.0040468196384608746,-0.031980000436306
0.6069999933242798,0.0013200000394135714,0.02026650309562683,-0.024809999391436577
0.6129999756813049,0.0013599999947473407,0.03079373389482498,-0.0170499999076128
0.6190000176429749,0.0027199999894946814,0.034502457827329636,-0.009100000374019146
0.625,0.007139999885112047,0.032078199088573456,-0.0013099999632686377
0.6309999823570251,0.004939999897032976,0.026905180886387825,0.005900000222027302
0.6370000243186951,-0.0013000000035390258,0.02158425934612751,0.012160000391304493
0.6430000066757202,0.0007999999797903001,0.017675066366791725,0.017149999737739563
0.6489999890327454,0.004490000195801258,0.016032077372074127,0.02054000087082386
0.6549999713897705,-0.00024399999529123306,0.01638626679778099,0.022140000015497208
0.6610000133514404,-0.0030900000128895044,0.0162455253303051,0.02184000052511692
0.6669999957084656,0.002859999891370535,0.015398760326206684,0.01962999999523163
0.6729999780654907,0.006130000110715628,0.014929357916116714,0.01558000035583973
0.6790000200271606,0.0007350000087171793,0.016607969999313354,0.009909999556839466
0.6850000023841858,-0.0022799998987466097,0.019111815840005875,0.0028899998869746923
0.6909999847412109,0.0027699999045580626,0.020356914028525352,-0.005049999803304672
0.6970000267028809,0.005969999823719263,0.020244698971509933,-0.01348000019788742
0.703000009059906,0.0036899999249726534,0.0198078416287899,-0.021929999813437462
0.7089999914169312,0.0030400000978261232,0.020362883806228638,-0.029899999499320984
0.7149999737739563,0.00419999985024333,0.020505597814917564,-0.03691999986767769
0.7210000157356262,0.004889999981969595,0.020137952640652657,-0.04255999997258186
0.7269999980926514,0.006940000224858522,0.018800415098667145,-0.046470001339912415
0.7329999804496765,0.00803999975323677,0.01697426289319992,-0.04843999817967415
0.7390000224113464,0.006839999929070473,0.015286548994481564,-0.04836000129580498
0.7450000047683716,0.006649999879300594,0.015465147793293,-0.04623999819159508
0.7509999871253967,0.006479999981820583,0.01891147531569004,-0.04225999861955643
0.7570000290870667,0.004269999917596579,0.025449955835938454,-0.03669999912381172
0.7630000114440918,0.0027099999133497477,0.03285668045282364,-0.029929999262094498
0.7689999938011169,0.002959999954327941,0.03706364706158638,-0.022450000047683716
0.7749999761581421,0.0016499999910593033,0.03704056143760681,-0.014770000241696835
0.781000018119812,-0.0012000000569969416,0.03392314165830612,-0.007459999993443489
0.7870000004768372,-0.0004290000069886446,0.03133110702037811,-0.0010300000431016088
0.7929999828338623,0.0019099999917671084,0.029747221618890762,0.004050000105053186
0.7990000247955322,0.0004079999926034361,0.028972012922167778,0.007430000230669975
0.8050000071525574,0.0014100000262260437,0.027357421815395355,0.008860000409185886
0.8109999895095825,0.007199999876320362,0.025714211165905,0.008229999803006649
0.8169999718666077,0.0064500002190470695,0.0243033766746521,0.00558000011369586
0.8230000138282776,0.0005130000063218176,0.0241471566259861,0.0010900000343099236
0.8289999961853027,0.0009219999774359167,0.023526933044195175,-0.004939999897032976
0.8349999785423279,0.0035099999513477087,0.023939862847328186,-0.012040000408887863
0.8410000205039978,0.0004529999860096723,0.027551865205168724,-0.019710000604391098
0.847000002861023,-0.0017000000225380063,0.032902881503105164,-0.027400000020861626
0.8529999852180481,0.003379999892786145,0.03575756028294563,-0.03460000082850456
0.859000027179718,0.009329999797046185,0.03353235870599747,-0.040789999067783356
0.8650000095367432,0.010040000081062317,0.027399549260735512,-0.04552999883890152
0.8709999918937683,0.009519999846816063,0.022949131205677986,-0.048510000109672546
0.8769999742507935,0.010359999723732471,0.02257886342704296,-0.049559999257326126
0.8830000162124634,0.009859999641776085,0.025841986760497093,-0.048650000244379044
0.8889999985694885,0.008500000461935997,0.029052497819066048,-0.045910000801086426
0.8949999809265137,0.005260000005364418,0.028886402025818825,-0.04159000143408775
0.9010000228881836,-0.0007099999929778278,0.020474256947636604,-0.036079999059438705
0.9070000052452087,-0.0020200000144541264,0.0032837840262800455,-0.029850000515580177
0.9129999876022339,0.0016599999507889152,-0.02534474991261959,-0.02339000068604946
0.9190000295639038,-0.00015700000221841037,-0.06064027175307274,-0.017249999567866325
0.925000011920929,-0.007089999970048666,-0.09426527470350266,-0.011909999884665012
0.9309999942779541,-0.010029999539256096,-0.11307864636182785,-0.007819999940693378
0.9369999766349792,-0.007899999618530273,-0.11191496253013611,-0.0052999998442828655
0.9430000185966492,-0.00506999995559454,-0.0936710387468338,-0.004530000034719706
0.9490000009536743,-0.003530000103637576,-0.07010066509246826,-0.005590000189840794
0.9549999833106995,-0.002899999963119626,-0.05153215676546097,-0.008369999937713146
0.9610000252723694,-0.0024999999441206455,-0.0427994579076767,-0.012659999541938305
0.9670000076293945,-0.0007590000168420374,-0.04349778965115547,-0.018139999359846115
0.9729999899864197,0.00215999991632998,-0.047277770936489105,-0.024390000849962234
0.9789999723434448,0.0013599999947473407,-0.0496172197163105,-0.030969999730587006
0.9850000143051147,-0.0030799999367445707,-0.04675877094268799,-0.03734999895095825
0.9909999966621399,-0.005119999870657921,-0.03977147489786148,-0.04309999942779541
0.996999979019165,-0.005859999917447567,-0.03229900076985359,-0.0478300005197525
1.003000020980835,-0.00610999995842576,-0.0313909538090229,-0.051270000636577606
1.0089999437332153,-0.0012499999720603228,-0.03901735693216324,-0.053210001438856125
1.0149999856948853,0.002630000002682209,-0.04915238171815872,-0.053599998354911804
1.0210000276565552,-0.0017600000137463212,-0.04182920977473259,-0.05251000076532364
1.0269999504089355,-0.004800000227987766,0.0011030135210603476,-0.05012999847531319
1.0329999923706055,0.0007210000185295939,0.05507297068834305,-0.04675000160932541
1.0390000343322754,0.003909999970346689,0.0482424721121788,-0.0427200011909008
1.0449999570846558,-0.004889999981969595,-0.08720622211694717,-0.03846000134944916
1.0509999990463257,-0.01819000020623207,-0.3157508373260498,-0.034380000084638596
1.0570000410079956,-0.024229999631643295,-0.4926269054412842,-0.03084000013768673
1.062999963760376,-0.02264999970793724,-0.47982776165008545,-0.02817000076174736
1.069000005722046,-0.01795000024139881,-0.29541948437690735,-0.02662000060081482
1.0750000476837158,-0.011909999884665012,-0.08560498058795929,-0.02630000002682209
1.0809999704360962,-0.006550000049173832,0.029020419344305992,-0.027240000665187836
1.0870000123977661,-0.0018100000452250242,0.04467637091875076,-0.029360000044107437
1.093000054359436,0.0012600000482052565,0.029410550370812416,-0.03249000012874603
1.0989999771118164,-0.0015200000489130616,0.024829577654600143,-0.03637000173330307
1.1050000190734863,-0.0042500002309679985,0.028826111927628517,-0.04064999893307686
1.1109999418258667,0.0011599999852478504,0.03175724297761917,-0.04498999938368797
1.1169999837875366,0.006049999967217445,0.0313463918864727,-0.04907999932765961
1.1230000257492065,0.0017500000540167093,0.027046512812376022,-0.052629999816417694
1.128999948501587,-0.0038799999747425318,0.01956929638981819,-0.055390000343322754
1.1349999904632568,-0.003370000049471855,0.008575402200222015,-0.057190001010894775
1.1410000324249268,-0.0013899999903514981,-6.581706111319363e-05,-0.0579800009727478
1.1469999551773071,-0.0015300000086426735,-0.004993163514882326,-0.05778999999165535
1.152999997138977,0.0014799999771639705,-0.00249737361446023,-0.05674999952316284
1.159000039100647,0.007160000037401915,0.007697513327002525,-0.055070001631975174
1.1649999618530273,0.005969999823719263,0.022801056504249573,-0.05299000069499016
1.1710000038146973,-0.0006960000027902424,0.03487587347626686,-0.05081000179052353
1.1770000457763672,-0.003269999986514449,0.0413692407310009,-0.048829998821020126
1.1829999685287476,-0.0024999999441206455,0.03956913203001022,-0.04729999974370003
1.1890000104904175,-0.0021100000012665987,0.03096318058669567,-0.046480000019073486
1.1950000524520874,-0.0008159999852068722,0.01933787576854229,-0.046480000019073486
1.2009999752044678,0.00022600000374950469,0.01114706788212061,-0.0473800003528595
1.2070000171661377,-0.001180000021122396,0.008422864601016045,-0.049150001257658005
1.2130000591278076,-0.003019999945536256,0.008043406531214714,-0.05170999839901924
1.218999981880188,-0.0016599999507889152,0.003260110504925251,-0.05488000065088272
1.225000023841858,0.0014700000174343586,-0.009252682328224182,-0.05838000029325485
1.2309999465942383,0.0006779999821446836,-0.027073340490460396,-0.06196000054478645
1.2369999885559082,-0.002589999930933118,-0.044337086379528046,-0.0653500035405159
1.2430000305175781,-0.003650000086054206,-0.060949284583330154,-0.06830000132322311
1.2489999532699585,-0.005520000122487545,-0.07999363541603088,-0.07058999687433243
1.2549999952316284,-0.007329999934881926,-0.10406976193189621,-0.07203999906778336
1.2610000371932983,-0.002259999979287386,-0.1259775161743164,-0.07263000309467316
1.2669999599456787,0.004240000154823065,-0.1366773247718811,-0.07237999886274338
1.2730000019073486,0.0014299999456852674,-0.13271526992321014,-0.07139000296592712
1.2790000438690186,-0.006579999811947346,-0.11864042282104492,-0.06978999823331833
1.284999966621399,-0.00851999968290329,-0.10039989650249481,-0.06786999851465225
1.2910000085830688,-0.005439999978989363,-0.08238047361373901,-0.06589999794960022
1.2970000505447388,-0.004819999914616346,-0.06700637936592102,-0.0641700029373169
1.3029999732971191,-0.0038799999747425318,-0.0607416108250618,-0.0629199966788292
1.309000015258789,-5.62999994144775e-05,-0.06687993556261063,-0.0622900016605854
1.315000057220459,-0.0010300000431016088,-0.07468236237764359,-0.06247999891638756
1.3209999799728394,-0.0060800001956522465,-0.06919702887535095,-0.06351999938488007
1.3270000219345093,-0.0062699997797608376,-0.04399978369474411,-0.06537999957799911
1.3329999446868896,-0.0028099999763071537,-0.009971514344215393,-0.06789000332355499
1.3389999866485596,0.0004729999927803874,0.016657410189509392,-0.07072000205516815
1.3450000286102295,0.003280000062659383,0.03045223280787468,-0.07363999634981155
1.3509999513626099,0.00267999991774559,0.03488347679376602,-0.07626999914646149
1.3569999933242798,0.0011099999537691474,0.03244783729314804,-0.0782800018787384
1.3630000352859497,0.004610000178217888,0.025795351713895798,-0.07927999645471573
1.36899995803833,0.008609999902546406,0.018041007220745087,-0.07890000194311142
1.375,0.005619999952614307,0.013827556744217873,-0.0769599974155426
1.38100004196167,9.249999857274815e-05,0.014913056045770645,-0.07336000353097916
1.3869999647140503,-0.00036199999158270657,0.01867266185581684,-0.06807000190019608
1.3930000066757202,0.0005039999959990382,0.020986484363675117,-0.06120000034570694
1.3990000486373901,-0.002099999925121665,0.02071419358253479,-0.05290000140666962
1.4049999713897705,-0.0016899999463930726,0.018246669322252274,-0.04357000067830086
1.4110000133514404,0.0034000000450760126,0.016181061044335365,-0.03361000120639801
1.4170000553131104,0.004310000222176313,0.016517654061317444,-0.023429999127984047
1.4229999780654907,0.0010999999940395355,0.018871469423174858,-0.013500000350177288
1.4290000200271606,0.0011699999449774623,0.021060826256871223,-0.004230000078678131
1.434999942779541,0.005270000081509352,0.020410096272826195,0.0038900000508874655
1.440999984741211,0.009410000406205654,0.01776963099837303,0.01063000038266182
1.4470000267028809,0.009359999559819698,0.014228278771042824,0.015799999237060547
1.4529999494552612,0.005539999809116125,0.011452936567366123,0.019300000742077827
1.4589999914169312,0.0031799999997019768,0.011889302171766758,0.02112000063061714
1.465000033378601,0.0023900000378489494,0.013599803671240807,0.02135000005364418
1.4709999561309814,-0.00015799999528098851,0.013049762696027756,0.02029000036418438
1.4769999980926514,-0.0036700000055134296,0.005561359226703644,0.0182499997317791
1.4830000400543213,-0.005849999841302633,-0.005760740023106337,0.015560000203549862
1.4889999628067017,-0.005450000055134296,-0.010579080320894718,0.012529999949038029
1.4950000047683716,-0.0035600000992417336,-0.0017018148209899664,0.009429999627172947
1.5010000467300415,-0.001930000027641654,0.015521157532930374,0.0066200001165270805
1.5069999694824219,0.0004330000083427876,0.029753215610980988,0.004310000222176313
1.5130000114440918,0.0024300001095980406,0.032236143946647644,0.0026100000832229853
1.5190000534057617,0.0016199999954551458,0.023768728598952293,0.001560000004246831
1.524999976158142,-0.0001289999927394092,0.010536909103393555,0.0010100000072270632
1.531000018119812,-0.0007430000114254653,0.0008337845210917294,0.0008929999894462526
1.5369999408721924,6.269999721553177e-05,-0.004844800569117069,0.001019999966956675
1.5429999828338623,0.0012000000569969416,-0.007986350916326046,0.0011899999808520079
1.5490000247955322,-0.0010100000072270632,-0.009900439530611038,0.0011699999449774623
1.5549999475479126,-0.005249999929219484,-0.00802377425134182,0.0007179999956861138
1.5609999895095825,-0.0038999998942017555,-0.004646367859095335,-0.0003020000003743917
1.5670000314712524,0.003920000046491623,0.00015443902520928532,-0.0019600000232458115
1.5729999542236328,0.007939999923110008,0.006020534783601761,-0.004259999841451645
1.5789999961853027,0.0015999999595806003,0.014817669987678528,-0.007089999970048666
1.5850000381469727,-0.003160000080242753,0.022663502022624016,-0.010280000045895576
1.590999960899353,0.004860000219196081,0.02433362789452076,-0.013620000332593918
1.597000002861023,0.011730000376701355,0.021633097901940346,-0.01679999940097332
1.6030000448226929,0.006010000128298998,0.018987128511071205,-0.019519999623298645
1.6089999675750732,0.0018899999558925629,0.016352422535419464,-0.02143000066280365
1.6150000095367432,0.006000000052154064,0.01108514703810215,-0.02225000038743019
1.621000051498413,0.006000000052154064,0.006788813043385744,-0.021800000220537186
1.6269999742507935,0.0013899999903514981,0.008935236372053623,-0.01996999979019165
1.6330000162124634,0.0024500000290572643,0.014223424717783928,-0.01671000011265278
1.6390000581741333,0.005059999879449606,0.018507225438952446,-0.01209999993443489
1.6449999809265137,-0.0004949999856762588,0.020777618512511253,-0.006339999847114086
1.6510000228881836,-0.006579999811947346,0.023485947400331497,0.0002640000020619482
1.656999945640564,-0.0027699999045580626,0.024879049509763718,0.007329999934881926
1.6629999876022339,0.0018899999558925629,0.023097632452845573,0.014469999819993973
1.6690000295639038,-0.0004870000120718032,0.017688676714897156,0.02126000076532364
1.6749999523162842,-0.0008120000129565597,0.015762876719236374,0.027249999344348907
1.680999994277954,0.004120000172406435,0.019579900428652763,0.03207999840378761
1.687000036239624,0.007410000078380108,0.027618607506155968,0.03548000007867813
1.6929999589920044,0.008050000295042992,0.033502720296382904,0.037289999425411224
1.6990000009536743,0.0071299998089671135,0.03419172391295433,0.037450000643730164
1.7050000429153442,0.00430000014603138,0.03239868953824043,0.035999998450279236
1.7109999656677246,0.0032099999953061342,0.03063427098095417,0.03317999839782715
1.7170000076293945,0.005950000137090683,0.0283640269190073,0.02928999997675419
1.7230000495910645,0.006870000157505274,0.026976069435477257,0.024709999561309814
1.7289999723434448,0.0009490000084042549,0.028211155906319618,0.01988000050187111
1.7350000143051147,-0.00482999999076128,0.03459477797150612,0.01522000040858984
1.7410000562667847,-0.0023900000378489494,0.04265362769365311,0.011230000294744968
1.746999979019165,0.0013200000394135714,0.04812414571642876,0.008270000107586384
1.753000020980835,-0.0006639999919570982,0.05795983597636223,0.006639999803155661
1.7589999437332153,-0.0019199999514967203,0.07962572574615479,0.0065299998968839645
1.7649999856948853,0.0015300000086426735,0.08216783404350281,0.007960000075399876
1.7710000276565552,0.004040000028908253,0.0042555793188512325,0.010879999957978725
1.7769999504089355,-0.0010300000431016088,-0.188820481300354,0.015110000036656857
1.7829999923706055,-0.013120000250637531,-0.4197140336036682,0.020349999889731407
1.7890000343322754,-0.01988999918103218,-0.5321619510650635,0.02621000073850155
1.7949999570846558,-0.012760000303387642,-0.44343864917755127,0.032180000096559525
1.8009999990463257,-0.0020200000144541264,-0.22725866734981537,0.03779999911785126
1.8070000410079956,0.0014299999456852674,-0.0320417620241642,0.04261000081896782
1.812999963760376,0.0017000000225380063,0.05840298533439636,0.04623999819159508
1.819000005722046,0.0034000000450760126,0.066086046397686,0.048420000821352005
1.8250000476837158,0.001550000044517219,0.05074825510382652,0.04885999858379364
1.8309999704360962,-0.0044200001284480095,0.040608398616313934,0.047520000487565994
1.8370000123977661,-0.005229999776929617,0.03905627503991127,0.044440001249313354
1.843000054359436,-0.0009379999828524888,0.04325714334845543,0.039820000529289246
1.8489999771118164,0.0004710000066552311,0.04794548451900482,0.0340300016105175
1.8550000190734863,0.003530000103637576,0.04711517319083214,0.027529999613761902
1.8609999418258667,0.009379999712109566,0.03902044519782066,0.020889999344944954
1.8669999837875366,0.005119999870657921,0.029124900698661804,0.014650000259280205
1.8730000257492065,-0.004040000028908253,0.021079927682876587,0.009309999644756317
1.878999948501587,1.6899999536690302e-05,0.014824883081018925,0.005260000005364418
1.8849999904632568,0.008410000242292881,0.012745261192321777,0.0032599999103695154
1.8910000324249268,0.0024500000290572643,0.015982666984200478,0.003719999920576811
1.8969999551773071,-0.007569999899715185,0.018728455528616905,0.00687999976798892
1.902999997138977,-0.00395999988541007,0.016767071560025215,0.012670000083744526
1.909000039100647,0.003169999923557043,0.0098935691639781,0.02047000080347061
1.9149999618530273,-3.060000017285347e-05,0.0025801490992307663,0.030570000410079956
1.9210000038146973,-0.0027099999133497477,-0.0014781957725062966,0.04244999960064888
1.9270000457763672,0.0012199999764561653,-0.0038514728657901287,0.05550999939441681
1.9329999685287476,-0.0008290000259876251,-0.007499162573367357,0.06870999932289124
1.9390000104904175,-0.006320000160485506,-0.013360447250306606,0.08026999980211258
1.9450000524520874,-0.0024999999441206455,-0.023813240230083466,0.08985999971628189
1.9509999752044678,0.003010000102221966,-0.04152218997478485,0.09623999893665314
1.9570000171661377,-0.0007639999967068434,-0.06551136821508408,0.0983399972319603
1.9630000591278076,-0.006560000125318766,-0.09136649966239929,0.09485000371932983
1.968999981880188,-0.004999999888241291,-0.11285975575447083,0.08405999839305878
1.975000023841858,0.0005740000051446259,-0.12711450457572937,0.06577000021934509
1.9809999465942383,0.0019600000232458115,-0.13666465878486633,0.039239998906850815
1.9869999885559082,-0.00215000007301569,-0.14284656941890717,0.004120000172406435
1.9930000305175781,-0.006659999955445528,-0.14581726491451263,-0.03970000147819519
1.9989999532699585,-0.006610000040382147,-0.1435783952474594,-0.09216000139713287
2.005000114440918,-0.0013299999991431832,-0.1351209282875061,-0.15216000378131866
2.010999917984009,0.002589999930933118,-0.12136731296777725,-0.21877999603748322
2.0169999599456787,0.0005419999943114817,-0.11015135794878006,-0.2906700074672699
2.0230000019073486,-0.0019499999471008778,-0.10679767280817032,-0.36601001024246216
2.0290000438690186,-0.003060000017285347,-0.1155814379453659,-0.4424099922180176
2.0350000858306885,-0.00634999992325902,-0.12836523354053497,-0.5174300074577332
2.0409998893737793,-0.007120000198483467,-0.13501028716564178,-0.5889599919319153
2.046999931335449,-0.0015899999998509884,-0.12591883540153503,-0.6547999978065491
2.052999973297119,0.0034099998883903027,-0.10417427122592926,-0.7124300003051758
2.059000015258789,0.00215000007301569,-0.07898673415184021,-0.759090006351471
2.065000057220459,-0.0031399999279528856,-0.06038646772503853,-0.7928699851036072
2.071000099182129,-0.00698000006377697,-0.04991953819990158,-0.8129199743270874
2.0769999027252197,-0.007120000198483467,-0.04018750041723251,-0.8185399770736694
2.0829999446868896,-0.005179999861866236,-0.024151111021637917,-0.8091099858283997
2.0889999866485596,-0.0017000000225380063,-0.00033262776560150087,-0.784250020980835
2.0950000286102295,0.0013000000035390258,0.021447762846946716,-0.7447199821472168
2.1010000705718994,0.0005709999823011458,0.0335683636367321,-0.6925600171089172
2.1070001125335693,-0.0011399999493733048,0.03615541756153107,-0.6298400163650513
2.11299991607666,0.0002390000008745119,0.035234179347753525,-0.5586000084877014
2.11899995803833,0.0031799999997019768,0.035355810075998306,-0.48107999563217163
2.125,0.003809999907389283,0.03798525780439377,-0.4001399874687195
2.13100004196167,0.0017000000225380063,0.04160723462700844,-0.31905999779701233
2.13700008392334,0.0018700000364333391,0.04176180809736252,-0.24062000215053558
2.1429998874664307,0.004699999932199717,0.03710508719086647,-0.16718000173568726
2.1489999294281006,0.0040799998678267,0.03136221319437027,-0.10074000060558319
2.1549999713897705,0.0035099999513477087,0.030957229435443878,-0.043299999088048935
2.1610000133514404,0.008559999987483025,0.035645999014377594,0.004050000105053186
2.1670000553131104,0.009569999761879444,0.03814248368144035,0.04072999954223633
2.1730000972747803,0.0005380000220611691,0.03348539397120476,0.0666700005531311
2.178999900817871,-0.006850000005215406,0.026638304814696312,0.08241000026464462
2.184999942779541,-0.004879999905824661,0.02492169290781021,0.08829999715089798
2.190999984741211,-0.0008379999781027436,0.029609043151140213,0.0862400010228157
2.197000026702881,0.0005210000090301037,0.03338402882218361,0.07794000208377838
2.203000068664551,0.00395999988541007,0.032971762120723724,0.06505999714136124
2.2090001106262207,0.00761000020429492,0.029002215713262558,0.04949000105261803
2.2149999141693115,0.0040699997916817665,0.026677260175347328,0.032189998775720596
2.2209999561309814,-0.0007089999853633344,0.02508939430117607,0.0154600003734231
2.2269999980926514,0.0014100000262260437,0.022952331230044365,0.0007469999836757779
2.2330000400543213,0.004470000043511391,0.021494634449481964,-0.011049999855458736
2.239000082015991,0.004000000189989805,0.022355688735842705,-0.019260000437498093
2.244999885559082,0.0018599999602884054,0.0252555962651968,-0.02428000047802925
2.250999927520752,-0.0031999999191612005,0.027927687391638756,-0.025609999895095825
2.256999969482422,-0.007679999805986881,0.027815857902169228,-0.023439999669790268
2.263000011444092,-0.004739999771118164,0.023774385452270508,-0.018379999324679375
2.2690000534057617,0.0018599999602884054,0.020246412605047226,-0.011180000379681587
2.2750000953674316,0.0033199999015778303,0.020946864038705826,-0.003019999945536256
2.2809998989105225,-0.0001049999991664663,0.027862632647156715,0.005520000122487545
2.2869999408721924,-0.0015899999998509884,0.034611303359270096,0.013810000382363796
2.2929999828338623,-0.000598000013269484,0.03540567681193352,0.021220000460743904
2.2990000247955322,-0.0010999999940395355,0.03106071613729,0.02725999988615513
2.305000066757202,-0.0006910000229254365,0.028181394562125206,0.03158000111579895
2.311000108718872,0.0021200000774115324,0.028579313308000565,0.0340999998152256
2.316999912261963,0.001879999996162951,0.0292410496622324,0.034929998219013214
2.322999954223633,-0.0016499999910593033,0.02806808054447174,0.0343099981546402
2.3289999961853027,-0.0024500000290572643,0.025725984945893288,0.032519999891519547
2.3350000381469727,0.0017300000181421638,0.024540554732084274,0.03003999963402748
2.3410000801086426,0.006060000043362379,0.02490207552909851,0.02717999927699566
2.3469998836517334,0.003280000062659383,0.023506006225943565,0.02428000047802925
2.3529999256134033,-0.0035200000274926424,0.019816067069768906,0.021630000323057175
2.3589999675750732,-0.004800000227987766,0.016476554796099663,0.019419999793171883
2.365000009536743,-0.003490000031888485,0.013152343221008778,0.01775999926030636
2.371000051498413,-0.005520000122487545,0.00868895836174488,0.01662999950349331
2.377000093460083,-0.004800000227987766,-8.839336078381166e-05,0.01590999960899353
2.382999897003174,0.0007639999967068434,-0.011498630046844482,0.015420000068843365
2.3889999389648438,0.001509999972768128,-0.02154350094497204,0.014949999749660492
2.3949999809265137,-0.0040799998678267,-0.026533380150794983,0.014279999770224094
2.4010000228881836,-0.004410000052303076,-0.026249047368764877,0.013260000385344028
2.4070000648498535,0.001930000027641654,-0.02092689462006092,0.011789999902248383
2.4130001068115234,0.0017300000181421638,-0.014540632255375385,0.009820000268518925
2.4189999103546143,-0.004660000093281269,-0.0076836468651890755,0.007379999849945307
2.424999952316284,-0.00431999983265996,-0.001181463012471795,0.004629999864846468
2.430999994277954,-0.00022899999748915434,0.007546550594270229,0.0017800000496208668
2.437000036239624,-0.0004579999949783087,0.017036881297826767,-0.0008800000068731606
2.443000078201294,-0.0002730000123847276,0.026146436110138893,-0.0030799999367445707
2.4489998817443848,0.00107999995816499,0.030927235260605812,-0.0045900000259280205
2.4549999237060547,-0.001550000044517219,0.030428890138864517,-0.005119999870657921
2.4609999656677246,-0.003220000071451068,0.027944883331656456,-0.004569999873638153
2.4670000076293945,0.0021299999207258224,0.02855057641863823,-0.0029100000392645597
2.4730000495910645,0.007689999882131815,0.032961662858724594,-0.00020199999562464654
2.4790000915527344,0.004999999888241291,0.03934970125555992,0.003329999977722764
2.484999895095825,-0.0005009999731555581,0.04760873317718506,0.007430000230669975
2.490999937057495,-0.00035200000274926424,0.06439558416604996,0.011660000309348106
2.496999979019165,0.002630000002682209,0.0902988389134407,0.01558000035583973
2.503000020980835,0.00571999978274107,0.09548398107290268,0.01875000074505806
2.509000062942505,0.008980000391602516,0.018217938020825386,0.020740000531077385
2.515000104904175,0.0035800000187009573,-0.16740140318870544,0.021229999139904976
2.5209999084472656,-0.012600000016391277,-0.3883235454559326,0.01996999979019165
2.5269999504089355,-0.022140000015497208,-0.501520037651062,0.01689000055193901
2.5329999923706055,-0.013650000095367432,-0.42396727204322815,0.012029999867081642
2.5390000343322754,4.9300001592200715e-06,-0.21986988186836243,0.005619999952614307
2.5450000762939453,0.0021299999207258224,-0.031238064169883728,-0.0019199999514967203
2.5510001182556152,-0.0014799999771639705,0.058175716549158096,-0.010099999606609344
2.556999921798706,0.005249999929219484,0.06576342135667801,-0.01834000088274479
2.562999963760376,0.01606000028550625,0.049510691314935684,-0.026040000841021538
2.569000005722046,0.013910000212490559,0.04220996052026749,-0.032590001821517944
2.575000047683716,0.0044200001284480095,0.04153962433338165,-0.03740999847650528
2.5810000896453857,0.0024500000290572643,0.039607737213373184,-0.04010999947786331
2.5869998931884766,0.004269999917596579,0.03467767313122749,-0.04042999818921089
2.5929999351501465,9.049999789567664e-05,0.029500413686037064,-0.03830000013113022
2.5989999771118164,-0.003530000103637576,0.026367312297225,-0.03384999930858612
2.6050000190734863,0.002749999985098839,0.023263344541192055,-0.02734999917447567
2.6110000610351562,0.00848000030964613,0.01989877223968506,-0.01931999996304512
2.617000102996826,0.002839999971911311,0.018774744123220444,-0.010370000265538692
2.622999906539917,-0.003530000103637576,0.02196132391691208,-0.001180000021122396
2.628999948501587,-0.0032399999909102917,0.026309706270694733,0.007459999993443489
2.634999990463257,-0.0027099999133497477,0.029656022787094116,0.014890000224113464
2.6410000324249268,-0.0003440000000409782,0.03119882009923458,0.02046000026166439
2.6470000743865967,0.005619999952614307,0.030419522896409035,0.02369000017642975
2.6530001163482666,0.004920000210404396,0.023457761853933334,0.02426999993622303
2.6589999198913574,-0.003100000089034438,0.008376172743737698,0.022040000185370445
2.6649999618530273,-0.00546000013127923,-0.011069249361753464,0.01713000051677227
2.6710000038146973,-0.001069999998435378,-0.028607485815882683,0.009859999641776085
2.677000045776367,-0.0017900000093504786,-0.04334617778658867,0.0006769999745301902
2.683000087738037,-0.007400000002235174,-0.05667351931333542,-0.009809999726712704
2.688999891281128,-0.006730000022798777,-0.07198338955640793,-0.020899999886751175
2.694999933242798,-0.001550000044517219,-0.08769562840461731,-0.03181000053882599
2.7009999752044678,-0.0004529999860096723,-0.09885712713003159,-0.04179999977350235
2.7070000171661377,-0.0014700000174343586,-0.09766103327274323,-0.05023999884724617
2.7130000591278076,-0.001820000004954636,-0.08408833295106888,-0.05663000047206879
2.7190001010894775,-0.0021200000774115324,-0.06343334168195724,-0.06061999872326851
2.7249999046325684,-0.0006569999968633056,-0.046492304652929306,-0.061980001628398895
2.7309999465942383,0.0003659999929368496,-0.03932458162307739,-0.060770001262426376
2.736999988555908,-0.0009830000344663858,-0.044618137180805206,-0.05719999969005585
2.743000030517578,-2.9999999242136255e-05,-0.06260145455598831,-0.051669999957084656
2.749000072479248,0.0027699999045580626,-0.09128286689519882,-0.04473999887704849
2.755000114440918,0.001560000004246831,-0.12370484322309494,-0.036970000714063644
2.760999917984009,-0.003169999923557043,-0.14880377054214478,-0.029069999232888222
2.7669999599456787,-0.006029999814927578,-0.15817609429359436,-0.02167999930679798
2.7730000019073486,-0.005810000002384186,-0.1512800008058548,-0.015390000306069851
2.7790000438690186,-0.007309999782592058,-0.1353984922170639,-0.010759999975562096
2.7850000858306885,-0.011210000142455101,-0.11750178039073944,-0.008080000057816505
2.7909998893737793,-0.010590000078082085,-0.09753115475177765,-0.007600000128149986
2.796999931335449,-0.004639999940991402,-0.07335999608039856,-0.009349999949336052
2.802999973297119,-0.0006339999963529408,-0.04690956696867943,-0.01322999969124794
2.809000015258789,-0.0009210000280290842,-0.022904260084033012,-0.01899000070989132
2.815000057220459,-0.0011899999808520079,-0.004718082025647163,-0.026179999113082886
2.821000099182129,0.0005890000029467046,0.006752421148121357,-0.034359999001026154
2.8269999027252197,0.0005389999714680016,0.014674190431833267,-0.04301000013947487
2.8329999446868896,-0.0014299999456852674,0.019680973142385483,-0.05163000151515007
2.8389999866485596,0.0010400000028312206,0.024344289675354958,-0.0597199983894825
2.8450000286102295,0.004559999797493219,0.0277326051145792,-0.06682000309228897
2.8510000705718994,0.000994000001810491,0.029793892055749893,-0.07259999960660934
2.8570001125335693,-0.0037499999161809683,0.02970964089035988,-0.07684999704360962
2.86299991607666,-0.003389999968931079,0.030827268958091736,-0.0794999971985817
2.86899995803833,-0.002630000002682209,0.03367109224200249,-0.08055999875068665
2.875,-0.0024800000246614218,0.0355728380382061,-0.08011999726295471
2.88100004196167,-0.000770999991800636,0.03231985121965408,-0.0784199982881546
2.88700008392334,-0.0004920000210404396,0.023457296192646027,-0.07574000209569931
2.8929998874664307,-0.0026599999982863665,0.013757205568253994,-0.07241000235080719
2.8989999294281006,-0.003700000001117587,0.007174278609454632,-0.06880000233650208
2.9049999713897705,-0.003100000089034438,0.004509583115577698,-0.06518000364303589
2.9110000133514404,-0.0035699999425560236,0.002813057042658329,-0.06187000125646591
2.9170000553131104,-0.0032099999953061342,0.00021231293794699013,-0.05909999832510948
2.9230000972747803,-0.00023700000019744039,0.00026258203433826566,-0.05705000087618828
2.928999900817871,-0.001120000029914081,0.0058569167740643024,-0.055879998952150345
2.934999942779541,-0.005419999826699495,0.015487497672438622,-0.05553999915719032
2.940999984741211,-0.00215000007301569,0.023045025765895844,-0.056040000170469284
2.947000026702881,0.005009999964386225,0.02708238549530506,-0.057339999824762344
2.953000068664551,0.0032500000670552254,0.029540691524744034,-0.05933000147342682
2.9590001106262207,-0.002240000059828162,0.03263837471604347,-0.06193999946117401
2.9649999141693115,0.0005099999834783375,0.0359138660132885,-0.06494999676942825
2.9709999561309814,0.008379999548196793,0.03837880492210388,-0.0682699978351593
2.9769999980926514,0.010080000385642052,0.03904605656862259,-0.07181999832391739
2.9830000400543213,0.0028299998957663774,0.03696509450674057,-0.0754999965429306
2.989000082015991,-0.004900000058114529,0.03316676616668701,-0.0792900025844574
2.994999885559082,-0.005280000157654285,0.027760567143559456,-0.0830800011754036
3.000999927520752,0.0009519999730400741,0.022627267986536026,-0.08686999976634979
3.006999969482422,0.006099999882280827,0.021914741024374962,-0.0906200036406517
3.013000011444092,0.0034099998883903027,0.026676861569285393,-0.0943399965763092
3.0190000534057617,-0.0001900000061141327,0.03301345184445381,-0.09803000092506409
3.0250000953674316,0.005900000222027302,0.0377427339553833,-0.10159000009298325
3.0309998989105225,0.01322999969124794,0.03842969238758087,-0.10499999672174454
3.0369999408721924,0.01039000041782856,0.03631699085235596,-0.10819000005722046
3.0429999828338623,0.0057299998588860035,0.03467332571744919,-0.11110000312328339
3.0490000247955322,0.00800000037997961,0.03327984735369682,-0.11367999762296677
3.055000066757202,0.010119999758899212,0.03201240301132202,-0.11576999723911285
3.061000108718872,0.005570000037550926,0.032029565423727036,-0.11734999716281891
3.066999912261963,0.001180000021122396,0.033657900989055634,-0.11836999654769897
3.072999954223633,0.004050000105053186,0.03461848199367523,-0.11881999671459198
3.0789999961853027,0.0076500000432133675,0.03497864678502083,-0.11878000199794769
3.0850000381469727,0.00535999983549118,0.03502531349658966,-0.11818999797105789
3.0910000801086426,0.0034099998883903027,0.033191028982400894,-0.11721000075340271
3.0969998836517334,0.006370000075548887,0.0271057840436697,-0.11597999930381775
3.1029999256134033,0.008209999650716782,0.016411075368523598,-0.11468999832868576
3.1089999675750732,0.0031799999997019768,0.0033466552849859,-0.11354999989271164
3.115000009536743,-0.0040799998678267,-0.007660869974642992,-0.1126599982380867
3.121000051498413,-0.0022299999836832285,-0.011458558030426502,-0.11225000023841858
3.127000093460083,0.007040000054985285,-0.0063809584826231,-0.11246000230312347
3.132999897003174,0.007790000177919865,0.004267176613211632,-0.11343999952077866
3.1389999389648438,-0.0017600000137463212,0.014593387953937054,-0.1152999997138977
3.1449999809265137,-0.0072200000286102295,0.019805902615189552,-0.11796999722719193
3.1510000228881836,-0.004259999841451645,0.020977798849344254,-0.12144000083208084
3.1570000648498535,-0.0009619999909773469,0.02099309302866459,-0.12560999393463135
3.1630001068115234,-0.0017300000181421638,0.022398250177502632,-0.1303499937057495
3.1689999103546143,-0.0020699999295175076,0.02457764372229576,-0.13553999364376068
3.174999952316284,0.001500000013038516,0.027200208976864815,-0.14086000621318817
3.180999994277954,0.00419999985024333,0.02937634103000164,-0.146139994263649
3.187000036239624,0.0024999999441206455,0.031697776168584824,-0.15116000175476074
3.193000078201294,-0.00017899999511428177,0.03345009312033653,-0.15577000379562378
3.1989998817443848,-0.000582000007852912,0.035485196858644485,-0.1598300039768219
3.2049999237060547,0.0018899999558925629,0.038308776915073395,-0.16317999362945557
3.2109999656677246,0.004939999897032976,0.044247616082429886,-0.16580000519752502
3.2170000076293945,0.005239999853074551,0.05361919477581978,-0.16773000359535217
3.2230000495910645,0.002950000111013651,0.06874223053455353,-0.16901999711990356
3.2290000915527344,7.709999772487208e-05,0.09221282601356506,-0.16981999576091766
3.234999895095825,0.0013599999947473407,0.09796400368213654,-0.17020000517368317
3.240999937057495,0.008860000409185886,0.027865750715136528,-0.17038999497890472
3.246999979019165,0.0086899995803833,-0.14904458820819855,-0.1705700010061264
3.253000020980835,-0.009859999641776085,-0.3633629381656647,-0.17091000080108643
3.259000062942505,-0.027550000697374344,-0.46997204422950745,-0.17156000435352325
3.265000104904175,-0.021050000563263893,-0.3838237226009369,-0.1725499927997589
3.2709999084472656,-0.0005360000068321824,-0.17697708308696747,-0.17399999499320984
3.2769999504089355,0.007519999984651804,0.004766243509948254,-0.17590999603271484
3.2829999923706055,0.0015699999639764428,0.08310919255018234,-0.17824000120162964
3.2890000343322754,0.00014600000577047467,0.08361279964447021,-0.1809300035238266
3.2950000762939453,0.00494999997317791,0.06200525164604187,-0.18374000489711761
3.3010001182556152,0.005810000002384186,0.04690096527338028,-0.18659000098705292
3.306999921798706,0.005659999791532755,0.03914082050323486,-0.18930000066757202
3.312999963760376,0.006630000192672014,0.03745667636394501,-0.19172999262809753
3.319000005722046,0.00215000007301569,0.04071411117911339,-0.19373999536037445
3.325000047683716,-0.002959999954327941,0.044684018939733505,-0.19517000019550323
3.3310000896453857,0.00017600000137463212,0.04671549052000046,-0.1959799975156784
3.3369998931884766,0.004050000105053186,0.04612622410058975,-0.1961899995803833
3.3429999351501465,-0.001550000044517219,0.040061090141534805,-0.19583000242710114
3.3489999771118164,-0.00860000029206276,0.028789568692445755,-0.19498999416828156
3.3550000190734863,-0.004490000195801258,0.017899837344884872,-0.193790003657341
3.3610000610351562,0.00431999983265996,0.011288465932011604,-0.19243000447750092
3.367000102996826,0.00571999978274107,0.00752891693264246,-0.19109000265598297
3.372999906539917,0.0031300000846385956,0.003264807164669037,-0.189970001578331
3.378999948501587,0.00139999995008111,-0.0035134656354784966,-0.1892399936914444
3.384999990463257,-0.0022799998987466097,-0.015143054537475109,-0.18904000520706177
3.3910000324249268,-0.005379999987781048,-0.03052332065999508,-0.1894800066947937
3.3970000743865967,-0.0038799999747425318,-0.04492397978901863,-0.1906300038099289
3.4030001163482666,-0.0009200000204145908,-0.0501190721988678,-0.19245000183582306
3.4089999198913574,-0.0005440000095404685,-0.04291825741529465,-0.19483999907970428
3.4149999618530273,-0.0025400000158697367,-0.03129075467586517,-0.19766999781131744
3.4210000038146973,-0.003539999946951866,-0.027025878429412842,-0.20076000690460205
3.427000045776367,-0.0030799999367445707,-0.03409068286418915,-0.20387999713420868
3.433000087738037,-0.004290000069886446,-0.05273457616567612,-0.20678000152111053
3.438999891281128,-0.005810000002384186,-0.07730219513177872,-0.2091899961233139
3.444999933242798,-0.0052999998442828655,-0.10221546143293381,-0.21089999377727509
3.4509999752044678,-0.00535999983549118,-0.12289465218782425,-0.21171000599861145
3.4570000171661377,-0.0076299998909235,-0.13560691475868225,-0.21151000261306763
3.4630000591278076,-0.01054999977350235,-0.14006954431533813,-0.21020999550819397
3.4690001010894775,-0.011289999820291996,-0.14045852422714233,-0.20780999958515167
3.4749999046325684,-0.00892999954521656,-0.14067409932613373,-0.20441000163555145
3.4809999465942383,-0.00749000022187829,-0.14374390244483948,-0.20017999410629272
3.486999988555908,-0.0081599997356534,-0.14653663337230682,-0.19532999396324158
3.493000030517578,-0.00687999976798892,-0.14189310371875763,-0.19011999666690826
3.499000072479248,-0.003969999961555004,-0.1283709853887558,-0.18479999899864197
3.505000114440918,-0.0032599999103695154,-0.11205820739269257,-0.17972999811172485
3.510999917984009,-0.00547999981790781,-0.09782669693231583,-0.1751900017261505
3.5169999599456787,-0.007019999902695417,-0.08489511162042618,-0.1714099943637848
3.5230000019073486,-0.0044200001284480095,-0.06988558173179626,-0.16857999563217163
3.5290000438690186,-0.0016499999910593033,-0.054930102080106735,-0.16675999760627747
3.5350000858306885,-0.0029200001154094934,-0.04475098475813866,-0.16606000065803528
3.5409998893737793,-0.003930000122636557,-0.03857032209634781,-0.1664399951696396
3.546999931335449,-0.0017099999822676182,-0.02900228090584278,-0.16775000095367432
3.552999973297119,0.0019199999514967203,-0.010148813016712666,-0.16979999840259552
3.559000015258789,0.005400000140070915,0.013886838220059872,-0.17227999866008759
3.565000057220459,0.0049600000493228436,0.03531697019934654,-0.17497000098228455
3.571000099182129,-0.0005440000095404685,0.047715600579977036,-0.17755000293254852
3.5769999027252197,-0.004910000134259462,0.04963028058409691,-0.1797100007534027
3.5829999446868896,-0.004110000096261501,0.045011766254901886,-0.18116000294685364
3.5889999866485596,-0.0014100000262260437,0.03900763764977455,-0.1815900057554245
3.5950000286102295,-0.00045900000259280205,0.03518113121390343,-0.1809300035238266
3.6010000705718994,0.0010400000028312206,0.033773038536310196,-0.1790499985218048
3.6070001125335693,0.004540000110864639,0.032892610877752304,-0.175929993391037
3.61299991607666,0.003909999970346689,0.03006599098443985,-0.17159000039100647
3.61899995803833,-0.0006549999816343188,0.026408540084958076,-0.16609999537467957
3.625,-5.410000085248612e-05,0.023224379867315292,-0.1597599983215332
3.63100004196167,0.00394000019878149,0.022550472989678383,-0.15277999639511108
3.63700008392334,0.0038300000596791506,0.0225908774882555,-0.14541999995708466
3.6429998874664307,0.002570000011473894,0.02358117327094078,-0.1379300057888031
3.6489999294281006,0.0035600000992417336,0.024747902527451515,-0.13054999709129333
3.6549999713897705,0.003389999968931079,0.027153082191944122,-0.12364999949932098
3.6610000133514404,0.0014100000262260437,0.03063264861702919,-0.11740999668836594
3.6670000553131104,0.0016199999954551458,0.0330665223300457,-0.11197999864816666
3.6730000972747803,0.004019999876618385,0.032295167446136475,-0.10745000094175339
3.678999900817871,0.00394000019878149,0.03147121146321297,-0.10379999876022339
3.684999942779541,0.0033400000538676977,0.03337138146162033,-0.10113999992609024
3.690999984741211,0.00686000008136034,0.03889233618974686,-0.09934999793767929
3.697000026702881,0.008369999937713146,0.044537659734487534,-0.09828999638557434
3.703000068664551,0.004110000096261501,0.046903982758522034,-0.09776999801397324
3.7090001106262207,0.0024399999529123306,0.0464157797396183,-0.09751000255346298
3.7149999141693115,0.005799999926239252,0.0458332821726799,-0.09745000302791595
3.7209999561309814,0.00848000030964613,0.045951150357723236,-0.09731999784708023
3.7269999980926514,0.009119999594986439,0.0455593578517437,-0.09690999984741211
3.7330000400543213,0.0083600003272295,0.04354861378669739,-0.09601999819278717
3.739000082015991,0.006140000186860561,0.038826365023851395,-0.0944100022315979
3.744999885559082,0.004769999999552965,0.032660264521837234,-0.09217000007629395
3.750999927520752,0.006550000049173832,0.026692936196923256,-0.0891600027680397
3.756999969482422,0.00851999968290329,0.024509521201252937,-0.0853400006890297
3.763000011444092,0.006180000025779009,0.026978932321071625,-0.08073999732732773
3.7690000534057617,0.0033599999733269215,0.03278583660721779,-0.07534000277519226
3.7750000953674316,0.004149999935179949,0.03920888155698776,-0.06941000372171402
3.7809998989105225,0.0021899999119341373,0.04352405667304993,-0.06300999969244003
3.7869999408721924,-0.0030499999411404133,0.047521017491817474,-0.05626000091433525
3.7929999828338623,-0.0026499999221414328,0.051713116466999054,-0.0492900013923645
3.7990000247955322,0.0012799999676644802,0.054036159068346024,-0.04224000126123428
3.805000066757202,0.0005970000056549907,0.05345455929636955,-0.03537999838590622
3.811000108718872,-0.0024300001095980406,0.04993916302919388,-0.028769999742507935
3.816999912261963,-0.0022899999748915434,0.04183013364672661,-0.022520000115036964
3.822999954223633,5.9300000430084765e-05,0.029439019039273262,-0.016720000654459
3.8289999961853027,0.0009500000160187483,0.017466336488723755,-0.011429999954998493
3.8350000381469727,0.0008430000161752105,0.012423595413565636,-0.006819999776780605
3.8410000801086426,0.0020000000949949026,0.016647104173898697,-0.002839999971911311
3.8469998836517334,0.0036200000904500484,0.023962361738085747,0.0005019999807700515
3.8529999256134033,0.0065299998968839645,0.02734502963721752,0.003220000071451068
3.8589999675750732,0.010820000432431698,0.027317414060235023,0.005309999920427799
3.865000009536743,0.010440000332891941,0.026371845975518227,0.006719999946653843
3.871000051498413,0.005080000031739473,0.027267836034297943,0.0075599998235702515
3.877000093460083,0.002240000059828162,0.030780751258134842,0.007890000008046627
3.882999897003174,0.0034099998883903027,0.03564467653632164,0.0077599999494850636
3.8889999389648438,0.005410000216215849,0.039159033447504044,0.007209999952465296
3.8949999809265137,0.007040000054985285,0.040421996265649796,0.006219999864697456
3.9010000228881836,0.007379999849945307,0.04060107469558716,0.004920000210404396
3.9070000648498535,0.0055599999614059925,0.041822779923677444,0.0034000000450760126
3.9130001068115234,0.002580000087618828,0.04459574818611145,0.0017300000181421638
3.9189999103546143,0.002469999948516488,0.04695958271622658,-2.1100000594742596e-05
3.924999952316284,0.006130000110715628,0.04679841175675392,-0.001829999964684248
3.930999994277954,0.008089999668300152,0.044168613851070404,-0.0035800000187009573
3.937000036239624,0.0083600003272295,0.04301154986023903,-0.005169999785721302
3.943000078201294,0.010689999908208847,0.049325503408908844,-0.0065299998968839645
3.9489998817443848,0.010110000148415565,0.07158693671226501,-0.007579999975860119
3.9549999237060547,0.004430000204592943,0.10264558345079422,-0.008329999633133411
3.9609999656677246,0.0014600000577047467,0.09916988015174866,-0.008709999732673168
3.9670000076293945,0.0017500000540167093,-0.003523236373439431,-0.008709999732673168
3.9730000495910645,-0.0041600000113248825,-0.21977002918720245,-0.008320000022649765
3.9790000915527344,-0.017230000346899033,-0.453095406293869,-0.007540000136941671
3.984999895095825,-0.024469999596476555,-0.5513848662376404,-0.006459999829530716
3.990999937057495,-0.018650000914931297,-0.4523014426231384,-0.0051299999468028545
3.996999979019165,-0.008990000002086163,-0.24174244701862335,-0.003650000086054206
4.002999782562256,-0.002899999963119626,-0.06340841203927994,-0.0020800000056624413
4.008999824523926,0.0006339999963529408,0.012281893752515316,-0.0004820000031031668
4.014999866485596,-0.00013000000035390258,0.01158490777015686,0.0010400000028312206
4.020999908447266,-0.0033400000538676977,-0.007690600585192442,0.002409999957308173
4.0269999504089355,-0.0026100000832229853,-0.01998778060078621,0.0035800000187009573
4.0329999923706055,-0.0005660000024363399,-0.019620558246970177,0.004540000110864639
4.039000034332275,-0.0016799999866634607,-0.011895501054823399,0.005280000157654285
4.045000076293945,-0.0015899999998509884,-0.0032134484499692917,0.005849999841302633
4.051000118255615,0.001769999973475933,0.0032172752544283867,0.006289999932050705
4.057000160217285,0.001829999964684248,0.010835005901753902,0.006690000183880329
4.063000202178955,-0.0032999999821186066,0.019926831126213074,0.0071299998089671135
4.068999767303467,-0.00394000019878149,0.02911495417356491,0.007699999958276749
4.074999809265137,0.0026000000070780516,0.03444899618625641,0.008500000461935997
4.080999851226807,0.004730000160634518,0.037647560238838196,0.009600000455975533
4.086999893188477,-0.00029200001154094934,0.03984815627336502,0.011060000397264957
4.0929999351501465,-0.003909999970346689,0.04211408272385597,0.012910000048577785
4.098999977111816,-0.004619999788701534,0.040616631507873535,0.015080000273883343
4.105000019073486,-0.002580000087618828,0.035984303802251816,0.0175199992954731
4.111000061035156,0.0032099999953061342,0.026791831478476524,0.02012000046670437
4.117000102996826,0.0049299998208880424,0.012654555030167103,0.022749999538064003
4.123000144958496,-0.0016499999910593033,-0.006617987062782049,0.02522999979555607
4.129000186920166,-0.006070000119507313,-0.02284957654774189,0.027370000258088112
4.135000228881836,-0.0011899999808520079,-0.028230074793100357,0.028950000181794167
4.140999794006348,0.003710000077262521,-0.022275855764746666,0.02979999966919422
4.146999835968018,0.00028700000257231295,-0.011343100108206272,0.02978000044822693
4.1529998779296875,-0.0029899999499320984,-0.001562633435241878,0.02879999950528145
4.158999919891357,0.00011500000255182385,0.0014885711716488004,0.026809999719262123
4.164999961853027,7.31999971321784e-05,-0.005552416201680899,0.023830000311136246
4.171000003814697,-0.00547999981790781,-0.020484009757637978,0.01996999979019165
4.177000045776367,-0.007160000037401915,-0.040346626192331314,0.015410000458359718
4.183000087738037,-0.005679999943822622,-0.06162663921713829,0.010379999876022339
4.189000129699707,-0.007139999885112047,-0.08332935720682144,0.005179999861866236
4.195000171661377,-0.008139999583363533,-0.1041874885559082,0.00014600000577047467
4.201000213623047,-0.004800000227987766,-0.11975894123315811,-0.004370000213384628
4.206999778747559,-0.0031399999279528856,-0.12879668176174164,-0.008050000295042992
4.2129998207092285,-0.007840000092983246,-0.12921461462974548,-0.010590000078082085
4.218999862670898,-0.009949999861419201,-0.11858611553907394,-0.01181000005453825
4.224999904632568,-0.003379999892786145,-0.0961918756365776,-0.011490000411868095
4.230999946594238,0.001019999966956675,-0.06849641352891922,-0.009630000218749046
4.236999988555908,-0.0022100000642240047,-0.04171564057469368,-0.0062699997797608376
4.243000030517578,-0.004689999856054783,-0.020163217559456825,-0.0015899999998509884
4.249000072479248,-0.004800000227987766,-0.004560708999633789,0.004100000020116568
4.255000114440918,-0.006260000169277191,0.0028118661139160395,0.010459999553859234
4.261000156402588,-0.007029999978840351,-1.90705104614608e-05,0.01703999936580658
4.267000198364258,-0.006060000043362379,-0.006828161887824535,0.023360000923275948
4.2729997634887695,-0.005619999952614307,-0.00863765086978674,0.028950000181794167
4.2789998054504395,-0.0053900000639259815,-0.0012505288468673825,0.033319998532533646
4.284999847412109,-0.0020600000862032175,0.010170165449380875,0.03610000014305115
4.290999889373779,0.0042500002309679985,0.01953781209886074,0.036979999393224716
4.296999931335449,0.006940000224858522,0.024182602763175964,0.03578000143170357
4.302999973297119,0.0031999999191612005,0.02645452506840229,0.03246000036597252
4.309000015258789,-0.00042100000428035855,0.02686539851129055,0.02711999975144863
4.315000057220459,0.0015300000086426735,0.02592538855969906,0.019990000873804092
4.321000099182129,0.005710000172257423,0.02594757452607155,0.011479999870061874
4.327000141143799,0.004600000102072954,0.028304018080234528,0.00203999993391335
4.333000183105469,-0.0005029999883845448,0.03129957616329193,-0.007790000177919865
4.339000225067139,-0.0002629999944474548,0.03149034455418587,-0.017410000786185265
4.34499979019165,0.002859999891370535,0.02980617620050907,-0.02622999995946884
4.35099983215332,0.0004020000051241368,0.027494220063090324,-0.033720001578330994
4.35699987411499,-0.0015300000086426735,0.02604452334344387,-0.03945999965071678
4.36299991607666,0.002570000011473894,0.024913594126701355,-0.04311000183224678
4.36899995803833,0.004689999856054783,0.024772150442004204,-0.04447000101208687
4.375,0.0022299999836832285,0.0271051786839962,-0.0435199998319149
4.38100004196167,0.0027000000700354576,0.03121531382203102,-0.04039999842643738
4.38700008392334,0.008220000192523003,0.03318151831626892,-0.03540999814867973
4.39300012588501,0.01155999954789877,0.03175870701670647,-0.028920000419020653
4.39900016784668,0.007160000037401915,0.029380593448877335,-0.021400000900030136
4.40500020980835,-4.959999932907522e-05,0.028835073113441467,-0.013410000130534172
4.410999774932861,-0.002460000105202198,0.030519770458340645,-0.005549999885261059
4.416999816894531,0.0001849999971454963,0.029783198609948158,0.0016599999507889152
4.422999858856201,0.002589999930933118,0.0236224178224802,0.007780000101774931
4.428999900817871,0.0001049999991664663,0.014257565140724182,0.012480000033974648
4.434999942779541,-0.00482999999076128,0.007749412674456835,0.015530000440776348
4.440999984741211,-0.006219999864697456,0.008817028254270554,0.016850000247359276
4.447000026702881,-0.0037400000728666782,0.018117601051926613,0.016499999910593033
4.453000068664551,0.0015800000401213765,0.02877628244459629,0.014689999632537365
4.459000110626221,0.007670000195503235,0.037100959569215775,0.011760000139474869
4.465000152587891,0.006479999981820583,0.04180778190493584,0.008139999583363533
4.4710001945495605,-0.002259999979287386,0.04378189519047737,0.004279999993741512
4.4770002365112305,-0.007160000037401915,0.04457348585128784,0.0006569999968633056
4.482999801635742,-0.0035200000274926424,0.043149448931217194,-0.002300000051036477
4.488999843597412,0.0028099999763071537,0.03955265134572983,-0.004230000078678131
4.494999885559082,0.005189999938011169,0.0374143049120903,-0.004860000219196081
4.500999927520752,0.0022700000554323196,0.03536278381943703,-0.004019999876618385
4.506999969482422,-0.0020699999295175076,0.03103042207658291,-0.0017000000225380063
4.513000011444092,-0.004879999905824661,0.020720863714814186,0.001979999942705035
4.519000053405762,-0.005169999785721302,0.004394785035401583,0.006750000175088644
4.525000095367432,-0.0025100000202655792,-0.009477180428802967,0.012249999679625034
4.531000137329102,0.00019500000053085387,-0.012579423375427723,0.018079999834299088
4.5370001792907715,0.0003870000073220581,-0.006109343841671944,0.023809999227523804
4.543000221252441,-0.0017600000137463212,0.005033855326473713,0.02897999994456768
4.548999786376953,-0.005429999902844429,0.013225073926150799,0.033149998635053635
4.554999828338623,-0.006599999964237213,0.01585666462779045,0.03595000132918358
4.560999870300293,-0.0028899998869746923,0.014547784812748432,0.03717999905347824
4.566999912261963,0.0009449999779462814,0.010860316455364227,0.036720000207424164
4.572999954223633,0.0007949999999254942,0.005512419622391462,0.03457000106573105
4.578999996185303,-0.0014400000218302011,-0.0009857836412265897,0.030799999833106995
4.585000038146973,-0.0016599999507889152,-0.007231673691421747,0.025699999183416367
4.591000080108643,-0.0009089999948628247,-0.008645938709378242,0.019610000774264336
4.5970001220703125,-0.004430000204592943,-0.0023472625762224197,0.012910000048577785
4.603000164031982,-0.007379999849945307,0.00778067484498024,0.006020000204443932
4.609000205993652,-0.0007619999814778566,0.01705649495124817,-0.0006580000044777989
4.614999771118164,0.007849999703466892,0.02242223173379898,-0.006709999870508909
4.620999813079834,0.006479999981820583,0.026499228551983833,-0.01181000005453825
4.626999855041504,-0.001120000029914081,0.031851671636104584,-0.01575000025331974
4.632999897003174,-0.004970000125467777,0.03903651982545853,-0.01840999908745289
4.638999938964844,-0.0028099999763071537,0.04409289360046387,-0.019780000671744347
4.644999980926514,0.0005150000215508044,0.04614000767469406,-0.019929999485611916
4.651000022888184,0.002099999925121665,0.04398722946643829,-0.01906999945640564
4.6570000648498535,0.004360000137239695,0.04161257669329643,-0.017470000311732292
4.663000106811523,0.00675999978557229,0.040371544659137726,-0.015429999679327011
4.669000148773193,0.0062500000931322575,0.04045257717370987,-0.013269999995827675
4.675000190734863,0.004459999967366457,0.043710000813007355,-0.01131999958306551
4.681000232696533,0.004220000002533197,0.052613791078329086,-0.009890000335872173
4.686999797821045,0.004889999981969595,0.07314759492874146,-0.009200000204145908
4.692999839782715,0.003920000046491623,0.09902690351009369,-0.009379999712109566
4.698999881744385,0.0014400000218302011,0.09124290943145752,-0.010459999553859234
4.704999923706055,3.5400000342633575e-05,-0.00992241594940424,-0.012369999662041664
4.710999965667725,-0.004110000096261501,-0.2067541927099228,-0.015010000206530094
4.7170000076293945,-0.013539999723434448,-0.3991043269634247,-0.01816999912261963
4.7230000495910645,-0.017720000818371773,-0.4507251977920532,-0.02157999947667122
4.729000091552734,-0.01071999967098236,-0.32666775584220886,-0.02490999922156334
4.735000133514404,-0.0013699999544769526,-0.1315096765756607,-0.027799999341368675
4.741000175476074,0.0035800000187009573,0.010069548152387142,-0.029980000108480453
4.747000217437744,0.0037400000728666782,0.060754306614398956,-0.031230000779032707
4.752999782562256,0.0009899999713525176,0.0629071518778801,-0.03135000169277191
4.758999824523926,0.0003440000000409782,0.05588693171739578,-0.030220000073313713
4.764999866485596,0.003109999932348728,0.04809961095452309,-0.027809999883174896
4.770999908447266,0.005030000116676092,0.039659492671489716,-0.024219999089837074
4.7769999504089355,0.004920000210404396,0.03445970639586449,-0.019600000232458115
4.7829999923706055,0.005400000140070915,0.03464862331748009,-0.014209999702870846
4.789000034332275,0.0048699998296797276,0.03578011691570282,-0.0083600003272295
4.795000076293945,-0.00017499999376013875,0.03548717871308327,-0.002400000113993883
4.801000118255615,-0.0027099999133497477,0.033255450427532196,0.003329999977722764
4.807000160217285,0.004509999882429838,0.03138800710439682,0.008500000461935997
4.813000202178955,0.010259999893605709,0.03174053505063057,0.012790000066161156
4.818999767303467,0.0060800001956522465,0.03283592313528061,0.015930000692605972
4.824999809265137,0.003909999970346689,0.032337941229343414,0.017729999497532845
4.830999851226807,0.008779999800026417,0.02888340689241886,0.01809000037610531
4.836999893188477,0.010060000233352184,0.026511868461966515,0.017009999603033066
4.8429999351501465,0.0062699997797608376,0.026435522362589836,0.014569999650120735
4.848999977111816,0.0063299997709691525,0.024515030905604362,0.010900000110268593
4.855000019073486,0.009410000406205654,0.017829613760113716,0.006219999864697456
4.861000061035156,0.005969999823719263,0.009306516498327255,0.0008120000129565597
4.867000102996826,-0.0012499999720603228,0.0037323187571018934,-0.005030000116676092
4.873000144958496,2.989999984492897e-06,-0.0013738437555730343,-0.010970000177621841
4.879000186920166,0.005210000090301037,-0.012025629170238972,-0.016669999808073044
4.885000228881836,0.0018500000005587935,-0.028214875608682632,-0.021859999746084213
4.890999794006348,-0.0034600000362843275,-0.040673110634088516,-0.026270000264048576
4.896999835968018,-0.00015199999324977398,-0.03845769912004471,-0.029680000618100166
4.9029998779296875,0.004279999993741512,-0.022885596379637718,-0.031939998269081116
4.908999919891357,0.0010400000028312206,-0.005605360493063927,-0.032919999212026596
4.914999961853027,-0.002050000010058284,-0.0007109650759957731,-0.03263000026345253
4.921000003814697,0.003100000089034438,-0.01322899479418993,-0.031109999865293503
4.927000045776367,0.005630000028759241,-0.03974800184369087,-0.028429999947547913
4.933000087738037,-0.0035600000992417336,-0.07459121942520142,-0.02474999986588955
4.939000129699707,-0.010329999960958958,-0.11121753603219986,-0.02020999975502491
4.945000171661377,-0.004809999838471413,-0.14259642362594604,-0.015060000121593475
4.951000213623047,-4.479999915929511e-05,-0.1629636287689209,-0.009530000388622284
4.956999778747559,-0.0035200000274926424,-0.16693396866321564,-0.003869999898597598
4.9629998207092285,-0.005410000216215849,-0.1502412110567093,0.0017099999822676182
4.968999862670898,-0.0006399999838322401,-0.1213223785161972,0.00698000006377697
4.974999904632568,0.002409999957308173,-0.09619858115911484,0.011760000139474869
4.980999946594238,-0.0020800000056624413,-0.08288943022489548,0.015860000625252724
4.986999988555908,-0.006200000178068876,-0.07656265795230865,0.019169999286532402
4.993000030517578,-0.0028099999763071537,-0.06531254947185516,0.02160000056028366
4.999000072479248,0.0025400000158697367,-0.041183311492204666,0.02311999909579754
5.005000114440918,0.003659999929368496,-0.008863692171871662,0.023730000481009483
5.011000156402588,0.0005929999751970172,0.021623006090521812,0.023499999195337296
5.017000198364258,-0.0040799998678267,0.04046955704689026,0.022530000656843185
5.0229997634887695,-0.0059899999760091305,0.045160066336393356,0.02094000019133091
5.0289998054504395,-0.004660000093281269,0.04137318953871727,0.018859999254345894
5.034999847412109,-0.0030700000934302807,0.03777211159467697,0.016459999606013298
5.040999889373779,-0.0004239999980200082,0.037628497928380966,0.013949999585747719
5.046999931335449,0.0030400000978261232,0.038202475756406784,0.01152000017464161
5.052999973297119,0.00343999988399446,0.03599754348397255,0.009290000423789024
5.059000015258789,0.0002099999983329326,0.03047935478389263,0.0073899999260902405
5.065000057220459,-0.0020600000862032175,0.02702675759792328,0.005890000145882368
5.071000099182129,0.0005070000188425183,0.028360892087221146,0.004879999905824661
5.077000141143799,0.003869999898597598,0.03384324908256531,0.004389999900013208
5.083000183105469,0.0029800001066178083,0.039746347814798355,0.004360000137239695
5.089000225067139,0.0018700000364333391,0.04372953996062279,0.004699999932199717
5.09499979019165,0.002460000105202198,0.04582633823156357,0.0052999998442828655
5.10099983215332,0.00047599998652003706,0.0457753911614418,0.006010000128298998
5.10699987411499,-0.0018500000005587935,0.04196726530790329,0.006690000183880329
5.11299991607666,-0.0009159999899566174,0.03406480699777603,0.007189999800175428
5.11899995803833,0.00011600000289035961,0.026123778894543648,0.007329999934881926
5.125,-0.0001539999939268455,0.02301349677145481,0.007019999902695417
5.13100004196167,0.0007130000158213079,0.02440522611141205,0.006130000110715628
5.13700008392334,0.0029200001154094934,0.026144862174987793,0.004629999864846468
5.14300012588501,0.004389999900013208,0.027085108682513237,0.002529999939724803
5.14900016784668,0.005309999920427799,0.026810377836227417,-0.00011800000356743112
5.15500020980835,0.006639999803155661,0.028538117185235023,-0.0031799999997019768
5.160999774932861,0.004170000087469816,0.03306159749627113,-0.0065100002102553844
5.166999816894531,-0.0024800000246614218,0.0385267436504364,-0.009929999709129333
5.172999858856201,-0.004050000105053186,0.0410999059677124,-0.01322999969124794
5.178999900817871,-0.00022600000374950469,0.040056172758340836,-0.016179999336600304
5.184999942779541,-0.00042600001324899495,0.037672869861125946,-0.018549999222159386
5.190999984741211,-0.0035099999513477087,0.03788450360298157,-0.020169999450445175
5.197000026702881,-0.003010000102221966,0.03952693194150925,-0.020899999886751175
5.203000068664551,-0.0016599999507889152,0.03671177476644516,-0.020640000700950623
5.209000110626221,-0.004149999935179949,0.02724136784672737,-0.01939000003039837
5.215000152587891,-0.006459999829530716,0.012655336409807205,-0.017149999737739563
5.2210001945495605,-0.003169999923557043,-0.0015719387447461486,-0.014039999805390835
5.2270002365112305,-0.0003260000084992498,-0.012261208146810532,-0.010239999741315842
5.232999801635742,-0.00418000016361475,-0.01395080704241991,-0.005950000137090683
5.238999843597412,-0.006240000016987324,-0.0059106918051838875,-0.0014700000174343586
5.244999885559082,-0.001610000035725534,0.008002122864127159,0.002940000034868717
5.250999927520752,0.0010900000343099236,0.020030807703733444,0.006990000139921904
5.256999969482422,-0.0003239999932702631,0.027140900492668152,0.010409999638795853
5.263000011444092,-0.0007849999819882214,0.029522623866796494,0.01295000035315752
5.269000053405762,-0.0007820000173524022,0.03022046945989132,0.014410000294446945
5.275000095367432,-0.0014700000174343586,0.029498429968953133,0.014680000022053719
5.281000137329102,-0.0009270000155083835,0.02597297728061676,0.01370999962091446
5.2870001792907715,0.00030300000798888505,0.020225413143634796,0.01152000017464161
5.293000221252441,-1.6399999367422424e-05,0.013589607551693916,0.008200000040233135
5.298999786376953,-0.00036899998667649925,0.005989994388073683,0.00394000019878149
5.304999828338623,0.0009239999926649034,-0.00487013254314661,-0.0010300000431016088
5.310999870300293,-0.0004799999878741801,-0.018412595614790916,-0.006430000066757202
5.316999912261963,-0.004650000017136335,-0.03007638268172741,-0.011939999647438526
5.322999954223633,-0.004509999882429838,-0.0324760302901268,-0.01727999933063984
5.328999996185303,-0.0028200000524520874,-0.024680277332663536,-0.022120000794529915
5.335000038146973,-0.005760000087320805,-0.011689604260027409,-0.026200000196695328
5.341000080108643,-0.0062500000931322575,0.0005739889456890523,-0.02928999997675419
5.3470001220703125,0.0008650000090710819,0.00802860502153635,-0.03125
5.353000164031982,0.007369999773800373,0.01307841669768095,-0.03200000151991844
5.359000205993652,0.00571999978274107,0.019512582570314407,-0.031539998948574066
5.364999771118164,-0.0004870000120718032,0.027706362307071686,-0.029920000582933426
5.370999813079834,-0.0008839999791234732,0.03453536331653595,-0.027300000190734863
5.376999855041504,0.00535999983549118,0.037930961698293686,-0.02387000061571598
5.382999897003174,0.006870000157505274,0.039660099893808365,-0.019899999722838402
5.388999938964844,0.0016899999463930726,0.043447595089673996,-0.015690000727772713
5.394999980926514,0.00012199999764561653,0.046497054398059845,-0.011479999870061874
5.401000022888184,0.004189999774098396,0.045904260128736496,-0.007579999975860119
5.4070000648498535,0.006659999955445528,0.04172062501311302,-0.004230000078678131
5.413000106811523,0.006490000057965517,0.03994385153055191,-0.0016599999507889152
5.419000148773193,0.007829999551177025,0.04461076855659485,-6.440000288421288e-05
5.425000190734863,0.006969999987632036,0.06040482223033905,0.0005169999785721302
5.431000232696533,0.0004440000047907233,0.08742170035839081,3.569999898900278e-05
5.436999797821045,-0.0009899999713525176,0.09832499176263809,-0.0014799999771639705
5.442999839782715,0.005979999899864197,0.03240694850683212,-0.00394000019878149
5.448999881744385,0.004009999800473452,-0.14311712980270386,-0.007280000019818544
5.454999923706055,-0.011590000241994858,-0.3623062074184418,-0.011250000447034836
5.460999965667725,-0.02206999994814396,-0.4796886146068573,-0.01568000018596649
5.4670000076293945,-0.016499999910593033,-0.4052608609199524,-0.0203699991106987
5.4730000495910645,-0.0036200000904500484,-0.19867253303527832,-0.025140000507235527
5.479000091552734,0.0038499999791383743,-0.006650292314589024,-0.029850000515580177
5.485000133514404,0.0036200000904500484,0.0829726979136467,-0.03432000055909157
5.491000175476074,0.0024300001095980406,0.08712290227413177,-0.03844999894499779
5.497000217437744,0.003329999977722764,0.06567049771547318,-0.042180001735687256
5.502999782562256,0.0035600000992417336,0.04914816468954086,-0.045499999076128006
5.508999824523926,0.002360000042244792,0.04037697985768318,-0.04837999865412712
5.514999866485596,0.002940000034868717,0.03577779233455658,-0.05087000131607056
5.520999908447266,0.006089999806135893,0.035591352730989456,-0.05302000045776367
5.5269999504089355,0.0042500002309679985,0.037792954593896866,-0.054910000413656235
5.5329999923706055,-0.004430000204592943,0.039126861840486526,-0.05657999962568283
5.539000034332275,-0.006070000119507313,0.037480663508176804,-0.05804000049829483
5.545000076293945,0.0024500000290572643,0.03273101896047592,-0.05933000147342682
5.551000118255615,0.004749999847263098,0.027759861201047897,-0.06049000099301338
5.557000160217285,-0.00215999991632998,0.02719000168144703,-0.06153000146150589
5.563000202178955,-0.004269999917596579,0.030086180195212364,-0.062380000948905945
5.568999767303467,0.0005259999888949096,0.03221265599131584,-0.0629199966788292
5.574999809265137,0.0019499999471008778,0.030302342027425766,-0.06312000006437302
5.580999851226807,-0.0005990000208839774,0.0252382755279541,-0.06293000280857086
5.586999893188477,0.0012199999764561653,0.0180378220975399,-0.06230999901890755
5.5929999351501465,0.005179999861866236,0.00952425692230463,-0.061159998178482056
5.598999977111816,0.0025400000158697367,-0.0012864968739449978,-0.059369999915361404
5.605000019073486,-0.003949999809265137,-0.013496826402842999,-0.05696000158786774
5.611000061035156,-0.007780000101774931,-0.02459407038986683,-0.05397000163793564
5.617000102996826,-0.008070000447332859,-0.030701054260134697,-0.05042999982833862
5.623000144958496,-0.004050000105053186,-0.03296102583408356,-0.046390000730752945
5.629000186920166,0.0006769999745301902,-0.032414887100458145,-0.041839998215436935
5.635000228881836,-0.00011600000289035961,-0.033315230160951614,-0.036959998309612274
5.640999794006348,-0.004459999967366457,-0.03738444671034813,-0.031849998980760574
5.646999835968018,-0.008460000157356262,-0.04617968201637268,-0.0266100000590086
5.6529998779296875,-0.010780000127851963,-0.05718407407402992,-0.02133999951183796
5.658999919891357,-0.008229999803006649,-0.06859476864337921,-0.01607999950647354
5.664999961853027,-0.00215999991632998,-0.07913373410701752,-0.010990000329911709
5.671000003814697,0.0005249999812804163,-0.0899256020784378,-0.006070000119507313
5.677000045776367,-0.0014400000218302011,-0.09696612507104874,-0.0013599999947473407
5.683000087738037,-0.0027799999807029963,-0.09241331368684769,0.003120000008493662
5.689000129699707,-0.0022700000554323196,-0.0721241682767868,0.007410000078380108
5.695000171661377,-0.003010000102221966,-0.04512949660420418,0.011409999802708626
5.701000213623047,-0.002309999894350767,-0.02325291931629181,0.015209999866783619
5.706999778747559,0.0014100000262260437,-0.009657873772084713,0.0188400000333786
5.7129998207092285,0.000391999987186864,-0.0015588663518428802,0.022280000150203705
5.718999862670898,-0.003640000009909272,0.003789530135691166,0.025529999285936356
5.724999904632568,-0.0001500000071246177,0.006658047437667847,0.02848000079393387
5.730999946594238,0.004780000075697899,0.006757807917892933,0.031129999086260796
5.736999988555908,0.0014900000533089042,0.006293749902397394,0.033440001308918
5.743000030517578,-0.0034600000362843275,0.006526239216327667,0.035339999943971634
5.749000072479248,-0.005169999785721302,0.009568126872181892,0.03675999864935875
5.755000114440918,-0.00634999992325902,0.017557306215167046,0.03751000016927719
5.761000156402588,-0.004619999788701534,0.029188957065343857,0.0376100018620491
5.767000198364258,0.0001720000000204891,0.03549925610423088,0.037039998918771744
5.7729997634887695,0.00039599998854100704,0.033696241676807404,0.0357699990272522
5.7789998054504395,-0.003289999905973673,0.02900007739663124,0.03386000171303749
5.784999847412109,-0.00023099999816622585,0.030119799077510834,0.031289998441934586
5.790999889373779,0.006940000224858522,0.0365472137928009,0.02824000082910061
5.796999931335449,0.005330000072717667,0.04315074533224106,0.024870000779628754
5.802999973297119,-0.00013099999341648072,0.04366523027420044,0.02135000005364418
5.809000015258789,0.0017999999690800905,0.03987734392285347,0.01792999915778637
5.815000057220459,0.004780000075697899,0.03538253530859947,0.014779999852180481
5.821000099182129,0.003800000064074993,0.033269867300987244,0.012140000239014626
5.827000141143799,0.00418000016361475,0.03575422987341881,0.010209999978542328
5.833000183105469,0.0035099999513477087,0.0407056100666523,0.009150000289082527
5.839000225067139,-0.0015200000489130616,0.04639377072453499,0.009100000374019146
5.84499979019165,-0.0045900000259280205,0.05095183104276657,0.010099999606609344
5.85099983215332,-0.0031399999279528856,0.054078638553619385,0.012129999697208405
5.85699987411499,-0.002460000105202198,0.05409351363778114,0.015119999647140503
5.86299991607666,-0.0031900000758469105,0.051363859325647354,0.018950000405311584
5.86899995803833,-0.0005859999801032245,0.04660500958561897,0.023420000448822975
5.875,0.002319999970495701,0.0441446378827095,0.028289999812841415
5.88100004196167,-0.0008270000107586384,0.042580828070640564,0.03328999876976013
5.88700008392334,-0.0036899999249726534,0.03901902958750725,0.03815999999642372
5.89300012588501,-0.00039400000241585076,0.03127720579504967,0.04262999817728996
5.89900016784668,0.0009270000155083835,0.020106038078665733,0.046459998935461044
5.90500020980835,-0.0013299999991431832,0.010613909922540188,0.04944999888539314
5.910999774932861,0.0007539999787695706,0.0033683120273053646,0.0514799989759922
5.916999816894531,0.003160000080242753,-0.005203177686780691,0.0524899996817112
5.922999858856201,-0.0017999999690800905,-0.01363332848995924,0.05245999991893768
5.928999900817871,-0.006800000090152025,-0.01536854263395071,0.051430001854896545
5.934999942779541,-0.003229999914765358,-0.005793468561023474,0.04952999949455261
5.940999984741211,0.0006220000213943422,0.009575851261615753,0.04693000018596649
5.947000026702881,-0.003599999938160181,0.02489018440246582,0.04382999986410141
5.953000068664551,-0.0061900001019239426,0.03280593454837799,0.04044000059366226
5.959000110626221,-0.002309999894350767,0.03375859931111336,0.03694000095129013
5.965000152587891,-0.002529999939724803,0.027541229501366615,0.03351999819278717
5.9710001945495605,-0.003659999929368496,0.02027561515569687,0.03034999966621399
5.9770002365112305,0.0044999998062849045,0.01703137904405594,0.027529999613761902
5.982999801635742,0.010110000148415565,0.018147669732570648,0.025140000507235527
5.988999843597412,0.002219999907538295,0.019016847014427185,0.02322000078856945
5.994999885559082,-0.005669999867677689,0.019429700449109077,0.021740000694990158
6.000999927520752,-0.0024900001008063555,0.022337889298796654,0.020679999142885208
6.006999969482422,0.003490000031888485,0.027394190430641174,0.019990000873804092
6.013000011444092,0.005289999768137932,0.030916672199964523,0.019589999690651894
6.019000053405762,0.007029999978840351,0.03035064786672592,0.019440000876784325
6.025000095367432,0.007540000136941671,0.028872685506939888,0.01948999986052513
6.031000137329102,0.001230000052601099,0.028961656615138054,0.019740000367164612
6.0370001792907715,-0.004100000020116568,0.030577411875128746,0.020169999450445175
6.043000221252441,-1.1799999811046291e-05,0.03171928599476814,0.020840000361204147
6.048999786376953,0.005659999791532755,0.03158745542168617,0.02175999991595745
6.054999828338623,0.006219999864697456,0.031389109790325165,0.023000000044703484
6.060999870300293,0.004910000134259462,0.03054339811205864,0.024560000747442245
6.066999912261963,0.0036100000143051147,0.028403256088495255,0.026440000161528587
6.072999954223633,0.0027699999045580626,0.022581785917282104,0.028669999912381172
6.078999996185303,0.0023499999660998583,0.012868586927652359,0.031209999695420265
6.085000038146973,-0.0008030000026337802,0.0034866277128458023,0.03390999883413315
6.091000080108643,-0.006500000134110451,0.0005969402845948935,0.03658000007271767
6.0970001220703125,-0.006819999776780605,0.00604457501322031,0.039009999483823776
6.103000164031982,0.003449999960139394,0.019358109682798386,0.041039999574422836
6.109000205993652,0.013509999960660934,0.03851918503642082,0.04253999888896942
6.114999771118164,0.010569999925792217,0.05720001086592674,0.043230000883340836
6.120999813079834,0.003160000080242753,0.0698712095618248,0.04301000013947487
6.126999855041504,0.003869999898597598,0.07190477102994919,0.04177999868988991
6.132999897003174,0.008340000174939632,0.06464190036058426,0.03957999870181084
6.138999938964844,0.011370000429451466,0.05067616328597069,0.036559998989105225
6.144999980926514,0.012439999729394913,0.038853175938129425,0.033070001751184464
6.151000022888184,0.007009999826550484,0.03413504734635353,0.029570000246167183
6.1570000648498535,-0.0016599999507889152,0.03644026443362236,0.026520000770688057
6.163000106811523,-0.0024399999529123306,0.04179234057664871,0.024390000849962234
6.169000148773193,0.002090000081807375,0.04975951835513115,0.023439999669790268
6.175000190734863,-8.540000271750614e-05,0.05885994806885719,0.024639999493956566
6.181000232696533,-0.004749999847263098,0.07865258306264877,0.02850000001490116
6.186999797821045,0.001560000004246831,0.1089342013001442,0.035360001027584076
6.192999839782715,0.012129999697208405,0.11795620620250702,0.045159999281167984
6.198999881744385,0.0106800002977252,0.03740014508366585,0.057089999318122864
6.204999923706055,-0.0009919999865815043,-0.16861547529697418,0.07145000249147415
6.210999965667725,-0.014390000142157078,-0.4190276861190796,0.08748999983072281
6.2170000076293945,-0.024399999529123306,-0.5439791679382324,0.10429000109434128
6.2230000495910645,-0.021549999713897705,-0.45385903120040894,0.12037000060081482
6.229000091552734,-0.007290000095963478,-0.22720281779766083,0.13338999450206757
6.235000133514404,0.0017999999690800905,-0.031054887920618057,0.14246000349521637
6.241000175476074,5.1399998483248055e-05,0.05317239090800285,0.14584000408649445
6.247000217437744,-0.004360000137239695,0.05463161692023277,0.1419599950313568
6.252999782562256,-0.005470000207424164,0.037632089108228683,0.12919999659061432
6.258999824523926,-0.003370000049471855,0.03033473715186119,0.10577999800443649
6.264999866485596,-0.0027099999133497477,0.03326589986681938,0.07141999900341034
6.270999908447266,-0.005779999773949385,0.04066583514213562,0.02572000026702881
6.2769999504089355,-0.005830000154674053,0.04982530325651169,-0.031129999086260796
6.2829999923706055,0.0015699999639764428,0.059089355170726776,-0.09841000288724899
6.289000034332275,0.005470000207424164,0.06364782154560089,-0.1747799962759018
6.295000076293945,-0.003920000046491623,0.06245068833231926,-0.25804001092910767
6.301000118255615,-0.01233999989926815,0.05416455119848251,-0.34595999121665955
6.307000160217285,-0.00471000000834465,0.04531970992684364,-0.43588998913764954
6.313000202178955,0.00547999981790781,0.036420900374650955,-0.5247099995613098
6.318999767303467,0.004490000195801258,0.027761150151491165,-0.6087200045585632
6.324999809265137,0.001970000099390745,0.019079428166151047,-0.6846699714660645
6.330999851226807,0.0042500002309679985,0.01514140609651804,-0.7500600218772888
6.336999893188477,0.004920000210404396,0.014159965328872204,-0.8025699853897095
6.3429999351501465,0.0013000000035390258,0.013141331262886524,-0.8399199843406677
6.348999977111816,-0.00430000014603138,0.011286361142992973,-0.8599299788475037
6.355000019073486,-0.0067900000140070915,0.01130156684666872,-0.861810028553009
6.361000061035156,-0.0013299999991431832,0.011830543167889118,-0.8461999893188477
6.367000102996826,0.007079999893903732,0.01056350115686655,-0.814050018787384
6.373000144958496,0.008050000295042992,0.008590618148446083,-0.7664899826049805
6.379000186920166,0.0015999999595806003,0.00927305594086647,-0.7049800157546997
6.385000228881836,-0.0015999999595806003,0.013476536609232426,-0.6320599913597107
6.390999794006348,0.0016499999910593033,0.017910437658429146,-0.5512999892234802
6.396999835968018,0.0036200000904500484,0.019840536639094353,-0.46595001220703125
6.4029998779296875,0.002950000111013651,0.019201025366783142,-0.37893998622894287
6.408999919891357,0.003470000112429261,0.018781986087560654,-0.29304999113082886
6.414999961853027,0.0034000000450760126,0.019667446613311768,-0.2112099975347519
6.421000003814697,0.0034199999645352364,0.021383073180913925,-0.13607999682426453
6.427000045776367,0.005530000198632479,0.02067689038813114,-0.06960000097751617
6.433000087738037,0.005090000107884407,0.015437211841344833,-0.013050000183284283
6.439000129699707,0.0008880000095814466,0.0060445815324783325,0.03286999836564064
6.445000171661377,-0.0027600000612437725,-0.008173988200724125,0.06756000220775604
6.451000213623047,-0.004739999771118164,-0.023695850744843483,0.09167999774217606
6.456999778747559,-0.004470000043511391,-0.030904319137334824,0.10610000044107437
6.4629998207092285,-0.0006249999860301614,-0.022835999727249146,0.1119299978017807
6.468999862670898,0.004129999782890081,-0.004148750565946102,0.11066000163555145
6.474999904632568,0.004209999926388264,0.010102499276399612,0.10321000218391418
6.480999946594238,-0.001500000013038516,0.008579207584261894,0.09194999933242798
6.486999988555908,-0.006289999932050705,-0.0052903941832482815,0.07861000299453735
6.493000030517578,-0.005619999952614307,-0.015851061791181564,0.06449999660253525
6.499000072479248,-0.0013299999991431832,-0.017065666615962982,0.05087000131607056
6.505000114440918,0.005410000216215849,-0.010692990384995937,0.037870001047849655
6.511000156402588,0.009770000353455544,-0.0025742847938090563,0.026890000328421593
6.517000198364258,0.004050000105053186,0.00599654670804739,0.018479999154806137
6.5229997634887695,-0.006810000166296959,0.014951921999454498,0.012659999541938305
6.5289998054504395,-0.009770000353455544,0.023249516263604164,0.00930000003427267
6.534999847412109,-0.003169999923557043,0.02455572411417961,0.00749000022187829
6.540999889373779,0.0009270000155083835,0.021990545094013214,0.007269999943673611
6.546999931335449,-0.005289999768137932,0.021688027307391167,0.008299999870359898
6.552999973297119,-0.011830000206828117,0.027128372341394424,0.010089999996125698
6.559000015258789,-0.008340000174939632,0.03451443463563919,0.012190000154078007
6.565000057220459,-0.0026400000788271427,0.0377611480653286,0.014000000432133675
6.571000099182129,-0.0023799999617040157,0.036292288452386856,0.015399999916553497
6.577000141143799,-0.002319999970495701,0.035536326467990875,0.01631000079214573
6.583000183105469,0.00076299998909235,0.036758147180080414,0.016759999096393585
6.589000225067139,0.003470000112429261,0.0382506363093853,0.01680999994277954
6.59499979019165,0.0036200000904500484,0.03872714936733246,0.016669999808073044
6.60099983215332,0.002300000051036477,0.03865315765142441,0.01647000014781952
6.60699987411499,0.000514000013936311,0.03872937336564064,0.01641000062227249
6.61299991607666,-0.001829999964684248,0.03864005580544472,0.016720000654459
6.61899995803833,-0.0016599999507889152,0.03745635971426964,0.017559999600052834
6.625,0.0030900000128895044,0.03463344648480415,0.019109999760985374
6.63100004196167,0.006969999987632036,0.031083090230822563,0.021330000832676888
6.63700008392334,0.006180000025779009,0.029026221483945847,0.024129999801516533
6.64300012588501,0.003379999892786145,0.02952185831964016,0.027380000799894333
6.64900016784668,0.001509999972768128,0.03156305104494095,0.030899999663233757
6.65500020980835,0.00215999991632998,0.033540450036525726,0.03448000177741051
6.660999774932861,0.00267999991774559,0.033294837921857834,0.0378899984061718
6.666999816894531,-6.849999772384763e-05,0.030601918697357178,0.04089999943971634
6.672999858856201,-0.001500000013038516,0.028035752475261688,0.04326999932527542
6.678999900817871,0.0015999999595806003,0.027853457257151604,0.04481000080704689
6.684999942779541,0.004509999882429838,0.02891276776790619,0.045419998466968536
6.690999984741211,0.003449999960139394,0.029546936973929405,0.04510999843478203
6.697000026702881,-0.0008319999906234443,0.03066958859562874,0.04390000179409981
6.703000068664551,-0.004530000034719706,0.03543160483241081,0.04188999906182289
6.709000110626221,-0.004279999993741512,0.04205193743109703,0.03917999938130379
6.715000152587891,-0.0016299999551847577,0.04602709412574768,0.03596999868750572
6.7210001945495605,0.0008009999874047935,0.04427148774266243,0.03246000036597252
6.7270002365112305,0.0028899998869746923,0.03940025717020035,0.028869999572634697
6.732999801635742,0.005590000189840794,0.03500831872224808,0.025350000709295273
6.738999843597412,0.007699999958276749,0.0324331559240818,0.022050000727176666
6.744999885559082,0.003969999961555004,0.03214453160762787,0.01909000054001808
6.750999927520752,-0.0034000000450760126,0.03311940282583237,0.016529999673366547
6.756999969482422,-0.002899999963119626,0.03509954363107681,0.014379999600350857
6.763000011444092,0.00430000014603138,0.037327639758586884,0.012609999626874924
6.769000053405762,0.00558000011369586,0.03834874927997589,0.011149999685585499
6.775000095367432,0.0005959999980404973,0.035811033099889755,0.009929999709129333
6.781000137329102,-0.0016799999866634607,0.031035304069519043,0.008870000019669533
6.7870001792907715,0.0001429999974789098,0.026515403762459755,0.007860000245273113
6.793000221252441,0.0013899999903514981,0.02582555264234543,0.006829999852925539
6.798999786376953,0.0019600000232458115,0.028410933911800385,0.005739999935030937
6.804999828338623,0.003809999907389283,0.031822532415390015,0.0045900000259280205
6.810999870300293,0.0019000000320374966,0.03078315407037735,0.003370000049471855
6.816999912261963,-0.00482999999076128,0.022178765386343002,0.0021299999207258224
6.822999954223633,-0.0060800001956522465,0.00818138848990202,0.0009190000128000975
6.828999996185303,-0.0006649999995715916,-0.006590507458895445,-0.00017499999376013875
6.835000038146973,0.0011099999537691474,-0.0195798110216856,-0.0010300000431016088
6.841000080108643,-0.001820000004954636,-0.030185680836439133,-0.0016299999551847577
6.8470001220703125,-0.003710000077262521,-0.03814711794257164,-0.0019099999917671084
6.853000164031982,-0.0037499999161809683,-0.039434704929590225,-0.0018400000408291817
6.859000205993652,-0.00279999990016222,-0.027506543323397636,-0.0014100000262260437
6.864999771118164,0.00010099999781232327,-0.005387002602219582,-0.0006350000039674342
6.870999813079834,0.0043299999088048935,0.01860934868454933,0.0003859999997075647
6.876999855041504,0.005189999938011169,0.03373226895928383,0.001560000004246831
6.882999897003174,0.001970000099390745,0.037365589290857315,0.0027699999045580626
6.888999938964844,0.0014900000533089042,0.03408459573984146,0.00394000019878149
6.894999980926514,0.004209999926388264,0.02945435792207718,0.0049600000493228436
6.901000022888184,0.003920000046491623,0.027432169765233994,0.0057299998588860035
6.9070000648498535,0.0017099999822676182,0.029515335336327553,0.006200000178068876
6.913000106811523,0.0016700000269338489,0.033247072249650955,0.006339999847114086
6.919000148773193,0.0028800000436604023,0.036554619669914246,0.0061599998734891415
6.925000190734863,0.0028800000436604023,0.04003305733203888,0.005739999935030937
6.931000232696533,0.001290000043809414,0.04659377783536911,0.005150000099092722
6.936999797821045,0.000666000007186085,0.06197812035679817,0.004519999958574772
6.942999839782715,0.0018599999602884054,0.09182395786046982,0.00395999988541007
6.948999881744385,0.0029200001154094934,0.1252785474061966,0.0035800000187009573
6.954999923706055,0.0038300000596791506,0.10719865560531616,0.0035200000274926424
6.960999965667725,0.0009670000290498137,-0.03265918418765068,0.0038499999791383743
6.9670000076293945,-0.010700000450015068,-0.276703804731369,0.004619999788701534
6.9730000495910645,-0.02322000078856945,-0.48175469040870667,0.005830000154674053
6.979000091552734,-0.02304000034928322,-0.49756723642349243,0.007410000078380108
6.985000133514404,-0.010329999960958958,-0.3168301582336426,0.009270000271499157
6.991000175476074,0.0011599999852478504,-0.08757944405078888,0.011289999820291996
6.997000217437744,0.0008019999950192869,0.05424637347459793,0.013290000148117542
7.002999782562256,-0.005439999978989363,0.08654773235321045,0.01508999988436699
7.008999824523926,-0.006300000008195639,0.07026781886816025,0.01647000014781952
7.014999866485596,-0.0034600000362843275,0.053871966898441315,0.017260000109672546
7.020999908447266,-0.003710000077262521,0.05067745968699455,0.017340000718832016
7.0269999504089355,-0.005900000222027302,0.054820042103528976,0.016610000282526016
7.0329999923706055,-0.005040000192821026,0.06068183854222298,0.01501999981701374
7.039000034332275,-0.0008069999748840928,0.06276699155569077,0.012550000101327896
7.045000076293945,0.00139999995008111,0.05911543592810631,0.009309999644756317
7.051000118255615,0.001290000043809414,0.05166367068886757,0.005439999978989363
7.057000160217285,0.004980000201612711,0.04429507255554199,0.001120000029914081
7.063000202178955,0.010250000283122063,0.038453664630651474,-0.00343999988399446
7.068999767303467,0.009850000031292439,0.03300900012254715,-0.008030000142753124
7.074999809265137,0.004809999838471413,0.025458846241235733,-0.012369999662041664
7.080999851226807,-0.0004360000020824373,0.016151627525687218,-0.016249999403953552
7.086999893188477,-0.003980000037699938,0.008469929918646812,-0.019500000402331352
7.0929999351501465,-0.0048500001430511475,0.005211174488067627,-0.021970000118017197
7.098999977111816,-0.0016400000313296914,0.0030369041487574577,-0.0236200001090765
7.105000019073486,0.00570000009611249,0.0012467814376577735,-0.024369999766349792
7.111000061035156,0.009940000250935555,0.002240353263914585,-0.024299999698996544
7.117000102996826,0.004769999999552965,0.007055237423628569,-0.023499999195337296
7.123000144958496,-0.002050000010058284,0.009361824952065945,-0.022140000015497208
7.129000186920166,-0.0018599999602884054,0.00448082247748971,-0.02043999917805195
7.135000228881836,0.0005990000208839774,-0.0090500358492136,-0.018549999222159386
7.140999794006348,-0.0012799999676644802,-0.02866223081946373,-0.01672999933362007
7.146999835968018,-0.004370000213384628,-0.051992449909448624,-0.015180000104010105
7.1529998779296875,-0.002300000051036477,-0.07568749785423279,-0.014089999720454216
7.158999919891357,0.0019399999873712659,-0.09473923593759537,-0.013629999943077564
7.164999961853027,0.001769999973475933,-0.10508895665407181,-0.01384000014513731
7.171000003814697,0.0009200000204145908,-0.10981499403715134,-0.014790000393986702
7.177000045776367,0.00215000007301569,-0.1087760329246521,-0.01647000014781952
7.183000087738037,-0.0009089999948628247,-0.09982147812843323,-0.01882000081241131
7.189000129699707,-0.005799999926239252,-0.08598189800977707,-0.021770000457763672
7.195000171661377,-0.002689999993890524,-0.07623130828142166,-0.025100000202655792
7.201000213623047,0.005189999938011169,-0.07665112614631653,-0.02865000069141388
7.206999778747559,0.0063599999994039536,-0.08546820282936096,-0.032269999384880066
7.2129998207092285,0.0010600000387057662,-0.09455565363168716,-0.03579000011086464
7.218999862670898,-0.000155999994603917,-0.09901287406682968,-0.039080001413822174
7.224999904632568,0.0026700000744313,-0.10003197938203812,-0.04194999858736992
7.230999946594238,-0.00017499999376013875,-0.10034385323524475,-0.04430999979376793
7.236999988555908,-0.005179999861866236,-0.1003483459353447,-0.04611000046133995
7.243000030517578,-0.0035200000274926424,-0.09744876623153687,-0.0473800003528595
7.249000072479248,-0.000577000027988106,-0.08882561326026917,-0.048179998993873596
7.255000114440918,-0.0006130000110715628,-0.0704897791147232,-0.04851999878883362
7.261000156402588,0.0024800000246614218,-0.04067523404955864,-0.04853999987244606
7.267000198364258,0.007180000189691782,-0.007094393949955702,-0.04836999997496605
7.2729997634887695,0.004230000078678131,0.019726896658539772,-0.048190001398324966
7.2789998054504395,-0.0040799998678267,0.03408066928386688,-0.04820000007748604
7.284999847412109,-0.004910000134259462,0.04012782499194145,-0.04845999926328659
7.290999889373779,0.00171999994199723,0.042502306401729584,-0.049150001257658005
7.296999931335449,0.002570000011473894,0.044046033173799515,-0.05037999898195267
7.302999973297119,-0.002730000065639615,0.04439359903335571,-0.0522099994122982
7.309000015258789,-0.004860000219196081,0.04425704479217529,-0.054740000516176224
7.315000057220459,-0.005400000140070915,0.043061498552560806,-0.05787000060081482
7.321000099182129,-0.0063299997709691525,0.040870144963264465,-0.061569999903440475
7.327000141143799,-0.0028299998957663774,0.035360999405384064,-0.06577000021934509
7.333000183105469,0.002570000011473894,0.029953574761748314,-0.07035999745130539
7.339000225067139,0.0026499999221414328,0.027314458042383194,-0.07524000108242035
7.34499979019165,-0.0024300001095980406,0.02903175540268421,-0.08015000075101852
7.35099983215332,-0.007259999867528677,0.03319358080625534,-0.08496999740600586
7.35699987411499,-0.008209999650716782,0.03857860341668129,-0.08957000076770782
7.36299991607666,-0.005309999920427799,0.043063778430223465,-0.0938199982047081
7.36899995803833,4.310000076657161e-05,0.04601006209850311,-0.09762000292539597
7.375,0.0035699999425560236,0.043894942849874496,-0.10081999748945236
7.38100004196167,0.0009629999985918403,0.03419681265950203,-0.10341999679803848
7.38700008392334,-0.003930000122636557,0.021834896877408028,-0.1054299995303154
7.39300012588501,-0.006039999891072512,0.010824654251337051,-0.10689999908208847
7.39900016784668,-0.005169999785721302,0.0038096471689641476,-0.10789000242948532
7.40500020980835,-0.0004070000140927732,0.00032912465394474566,-0.10842999815940857
7.410999774932861,0.0035500000230968,0.0038693691603839397,-0.10869999974966049
7.416999816894531,-0.0011599999852478504,0.016837486997246742,-0.10881999880075455
7.422999858856201,-0.007189999800175428,0.033590029925107956,-0.10892000049352646
7.428999900817871,-0.003980000037699938,0.0382254458963871,-0.10911999642848969
7.434999942779541,2.680000034160912e-05,0.029376735910773277,-0.10942000150680542
7.440999984741211,-0.006519999820739031,0.015226839110255241,-0.10992000252008438
7.447000026702881,-0.01486000046133995,0.0070565552450716496,-0.1106799989938736
7.453000068664551,-0.010440000332891941,0.008703634142875671,-0.11167000234127045
7.459000110626221,0.0006649999995715916,0.01719352789223194,-0.11288999766111374
7.465000152587891,0.0026499999221414328,0.027068236842751503,-0.11416000127792358
7.4710001945495605,-0.003000000026077032,0.032681893557310104,-0.11542999744415283
7.4770002365112305,-0.007319999858736992,0.02900760993361473,-0.1165900006890297
7.482999801635742,-0.009870000183582306,0.01841208152472973,-0.1175599992275238
7.488999843597412,-0.008750000037252903,0.01269204169511795,-0.11830999702215195
7.494999885559082,-0.0017099999822676182,0.01858660764992237,-0.11867000162601471
7.500999927520752,0.0040799998678267,0.031068796291947365,-0.11862999945878983
7.506999969482422,0.0014700000174343586,0.0396309457719326,-0.11821000277996063
7.513000011444092,-0.005840000230818987,0.041317399591207504,-0.11749999970197678
7.519000053405762,-0.008139999583363533,0.03785020858049393,-0.11666999757289886
7.525000095367432,-0.0035000001080334187,0.035845931619405746,-0.1157900020480156
7.531000137329102,-0.00026500000967644155,0.031777482479810715,-0.11507999897003174
7.5370001792907715,-0.0023399998899549246,0.02466203086078167,-0.11474999785423279
7.543000221252441,-0.006200000178068876,0.013073784299194813,-0.11501999944448471
7.548999786376953,-0.009340000338852406,-0.002379766432568431,-0.11618000268936157
7.554999828338623,-0.009669999592006207,-0.01738128252327442,-0.11834000051021576
7.560999870300293,-0.006839999929070473,-0.027581650763750076,-0.12163999676704407
7.566999912261963,-0.004230000078678131,-0.030060863122344017,-0.12615999579429626
7.572999954223633,-0.004189999774098396,-0.026232201606035233,-0.13192999362945557
7.578999996185303,-0.006599999964237213,-0.018591929227113724,-0.1388700008392334
7.585000038146973,-0.00786999985575676,-0.010344753973186016,-0.1467600017786026
7.591000080108643,-0.004170000087469816,-0.003935228101909161,-0.1553799957036972
7.5970001220703125,0.0005370000144466758,-0.0017039012163877487,-0.16444000601768494
7.603000164031982,0.0013699999544769526,-0.0013514376478269696,-0.17359000444412231
7.609000205993652,0.00018200000340584666,0.005577902775257826,-0.18242000043392181
7.614999771118164,0.00013899999612476677,0.020686015486717224,-0.19047999382019043
7.620999813079834,0.0034799999557435513,0.0362568274140358,-0.19744999706745148
7.626999855041504,0.009840000420808792,0.04201679304242134,-0.20302000641822815
7.632999897003174,0.014340000227093697,0.03929631784558296,-0.2069299966096878
7.638999938964844,0.013030000030994415,0.03454073891043663,-0.20901000499725342
7.644999980926514,0.007290000095963478,0.03279922157526016,-0.20914000272750854
7.651000022888184,0.003819999983534217,0.034120235592126846,-0.20744000375270844
7.6570000648498535,0.006300000008195639,0.03709220886230469,-0.20410999655723572
7.663000106811523,0.00788000039756298,0.04054340720176697,-0.1993899941444397
7.669000148773193,0.004769999999552965,0.04384121671319008,-0.19360999763011932
7.675000190734863,0.003389999968931079,0.04550829902291298,-0.18714000284671783
7.681000232696533,0.005009999964386225,0.04506732523441315,-0.1805099993944168
7.686999797821045,0.005040000192821026,0.04527817666530609,-0.17417000234127045
7.692999839782715,0.0037299999967217445,0.049850013107061386,-0.16850000619888306
7.698999881744385,0.003640000009909272,0.06434352695941925,-0.1638299971818924
7.704999923706055,0.0049299998208880424,0.0884595662355423,-0.1604200005531311
7.710999965667725,0.0067900000140070915,0.09522398561239243,-0.15846000611782074
7.7170000076293945,0.008419999852776527,0.02586856670677662,-0.15800000727176666
7.7230000495910645,0.005439999978989363,-0.15516828000545502,-0.15895000100135803
7.729000091552734,-0.00675999978557229,-0.37889564037323,-0.161080002784729
7.735000133514404,-0.018360000103712082,-0.49313679337501526,-0.164110004901886
7.741000175476074,-0.015279999934136868,-0.4058677554130554,-0.16767999529838562
7.747000217437744,-0.00394000019878149,-0.18954560160636902,-0.17137999832630157
7.752999782562256,0.0025400000158697367,-0.0014579629059880972,-0.17479999363422394
7.758999824523926,0.004749999847263098,0.07104667276144028,-0.17750999331474304
7.764999866485596,0.005640000104904175,0.06330627202987671,-0.17919999361038208
7.770999908447266,0.005200000014156103,0.041538361459970474,-0.17958000302314758
7.7769999504089355,0.005900000222027302,0.034149836748838425,-0.17850999534130096
7.7829999923706055,0.00687999976798892,0.03218473866581917,-0.17591999471187592
7.789000034332275,0.0034000000450760126,0.02931978739798069,-0.17186999320983887
7.795000076293945,-0.0020800000056624413,0.027611343190073967,-0.16662999987602234
7.801000118255615,-0.000750000006519258,0.028709635138511658,-0.16046999394893646
7.807000160217285,0.005609999876469374,0.03224245086312294,-0.1537500023841858
7.813000202178955,0.005789999850094318,0.034679580479860306,-0.14687000215053558
7.818999767303467,0.0019000000320374966,0.03241974115371704,-0.1402300000190735
7.824999809265137,0.003490000031888485,0.028267454355955124,-0.13436000049114227
7.830999851226807,0.00610999995842576,0.02732962928712368,-0.1295900046825409
7.836999893188477,0.0035800000187009573,0.02974446676671505,-0.12620000541210175
7.8429999351501465,0.000371000001905486,0.030851833522319794,-0.12434999644756317
7.848999977111816,-9.40000027185306e-05,0.026872863993048668,-0.12404999881982803
7.855000019073486,0.0021299999207258224,0.020053720101714134,-0.1253499984741211
7.861000061035156,0.005929999984800816,0.013841033913195133,-0.12804999947547913
7.867000102996826,0.00686000008136034,0.010462990961968899,-0.131850004196167
7.873000144958496,0.0031500000040978193,0.010506562888622284,-0.1363700032234192
7.879000186920166,-9.649999992689118e-05,0.012813853099942207,-0.14106999337673187
7.885000228881836,0.0013800000306218863,0.014431394636631012,-0.14560000598430634
7.890999794006348,0.003060000017285347,0.013346286490559578,-0.14945000410079956
7.896999835968018,-0.0006949999951757491,0.010121953673660755,-0.15218999981880188
7.9029998779296875,-0.004819999914616346,0.00775628536939621,-0.15343999862670898
7.908999919891357,-0.004519999958574772,0.004975468851625919,-0.15279999375343323
7.914999961853027,-0.004310000222176313,-0.004221427720040083,-0.15023000538349152
7.921000003814697,-0.004389999900013208,-0.01894482783973217,-0.1456100046634674
7.927000045776367,-0.0024999999441206455,-0.030900167301297188,-0.13898999989032745
7.933000087738037,-0.0035099999513477087,-0.03323725238442421,-0.13053999841213226
7.939000129699707,-0.006680000107735395,-0.03275137394666672,-0.12044999748468399
7.945000171661377,-0.004980000201612711,-0.037926655262708664,-0.10922999680042267
7.951000213623047,-0.001550000044517219,-0.048779476433992386,-0.09724000096321106
7.956999778747559,-0.004129999782890081,-0.052939318120479584,-0.08494000136852264
7.9629998207092285,-0.0076299998909235,-0.0445387177169323,-0.07276999950408936
7.968999862670898,-0.0018100000452250242,-0.027385760098695755,-0.061159998178482056
7.974999904632568,0.006779999937862158,-0.011275247670710087,-0.05065000057220459
7.980999946594238,0.0049299998208880424,0.0007345956983044744,-0.04152999818325043
7.986999988555908,-0.0005370000144466758,0.007389355450868607,-0.034040000289678574
7.993000030517578,0.0015699999639764428,0.01209738478064537,-0.028349999338388443
7.999000072479248,0.00430000014603138,0.016092557460069656,-0.02450999990105629
8.005000114440918,0.0022100000642240047,0.018990134820342064,-0.022619999945163727
8.01099967956543,0.002460000105202198,0.02105833776295185,-0.02250000089406967
8.017000198364258,0.006750000175088644,0.021838173270225525,-0.023919999599456787
8.02299976348877,0.00803999975323677,0.022121593356132507,-0.02662999927997589
8.029000282287598,0.0035000001080334187,0.02197203040122986,-0.030230000615119934
8.03499984741211,-0.0006510000093840063,0.023052740842103958,-0.03452000021934509
8.041000366210938,0.001509999972768128,0.02664278820157051,-0.03903999924659729
8.04699993133545,0.005969999823719263,0.03268595039844513,-0.043379999697208405
8.053000450134277,0.004970000125467777,0.03780713677406311,-0.04723000153899193
8.059000015258789,-0.0017000000225380063,0.041063737124204636,-0.050209999084472656
8.0649995803833,-0.0047599999234080315,0.0438816212117672,-0.0522099994122982
8.071000099182129,0.002580000087618828,0.04740435630083084,-0.052969999611377716
8.07699966430664,0.010089999996125698,0.04922423139214516,-0.05232999846339226
8.083000183105469,0.006550000049173832,0.04682030901312828,-0.050269998610019684
8.08899974822998,0.001180000021122396,0.04310373589396477,-0.046790000051259995
8.095000267028809,0.0027799999807029963,0.0414775088429451,-0.04210999980568886
8.10099983215332,0.003909999970346689,0.041396718472242355,-0.0363599993288517
8.107000350952148,0.0008709999965503812,0.03992471098899841,-0.029759999364614487
8.11299991607666,-0.0005549999768845737,0.03793218359351158,-0.0225600004196167
8.119000434875488,0.0027799999807029963,0.03490765765309334,-0.015069999732077122
8.125,0.009270000271499157,0.03133077546954155,-0.007670000195503235
8.130999565124512,0.014069999568164349,0.02713741734623909,-0.0006900000153109431
8.13700008392334,0.01155999954789877,0.024768024682998657,0.005609999876469374
8.142999649047852,0.0026599999982863665,0.025004878640174866,0.010970000177621841
8.14900016784668,-0.0026700000744313,0.02484665997326374,0.015209999866783619
8.154999732971191,0.0011899999808520079,0.02072983793914318,0.0181099995970726
8.16100025177002,0.004610000178217888,0.01713455654680729,0.019610000774264336
8.166999816894531,0.0010499999625608325,0.017901958897709846,0.019740000367164612
8.17300033569336,-0.0001429999974789098,0.022008346393704414,0.01858000084757805
8.178999900817871,0.005369999911636114,0.02427019737660885,0.0163199994713068
8.1850004196167,0.010060000233352184,0.02353089675307274,0.01310999970883131
8.190999984741211,0.010879999957978725,0.021555200219154358,0.009279999881982803
8.196999549865723,0.010230000130832195,0.022453559562563896,0.005160000175237656
8.20300006866455,0.00853000022470951,0.026547282934188843,0.0010900000343099236
8.208999633789062,0.00482999999076128,0.030572542920708656,-0.0025400000158697367
8.21500015258789,0.0017900000093504786,0.033872220665216446,-0.005499999970197678
8.220999717712402,0.004310000222176313,0.03625383973121643,-0.007420000154525042
8.22700023651123,0.007819999940693378,0.03678648918867111,-0.008089999668300152
8.232999801635742,0.004989999812096357,0.033437635749578476,-0.007360000163316727
8.23900032043457,0.0021699999924749136,0.028724996373057365,-0.005140000022947788
8.244999885559082,0.00431999983265996,0.02467825822532177,-0.0015200000489130616
8.25100040435791,0.003949999809265137,0.025022640824317932,0.0034000000450760126
8.256999969482422,0.0014100000262260437,0.02826669253408909,0.009440000168979168
8.262999534606934,0.00395999988541007,0.030539697036147118,0.01631000079214573
8.269000053405762,0.0051299999468028545,0.027509570121765137,0.023649999871850014
8.274999618530273,-0.0037499999161809683,0.02070188708603382,0.031039999797940254
8.281000137329102,-0.011590000241994858,0.014871534891426563,0.03809000179171562
8.286999702453613,-0.006289999932050705,0.016098011285066605,0.044429998844861984
8.293000221252441,7.200000254670158e-05,0.02220439538359642,0.049710001796483994
8.298999786376953,-0.003710000077262521,0.02838703989982605,0.053630001842975616
8.305000305175781,-0.005859999917447567,0.036254748702049255,0.05595000088214874
8.310999870300293,-0.0017600000137463212,0.047512203454971313,0.05657000094652176
8.317000389099121,-0.002950000111013651,0.05528933182358742,0.055479999631643295
8.322999954223633,-0.0081599997356534,0.05065673962235451,0.05276999995112419
8.329000473022461,-0.008059999905526638,0.034166134893894196,0.04864000156521797
8.335000038146973,-0.004819999914616346,0.017513463273644447,0.04332000017166138
8.340999603271484,-0.0035600000992417336,0.008603767491877079,0.03720000013709068
8.347000122070312,-0.0041600000113248825,0.004236181732267141,0.03067000024020672
8.352999687194824,-0.006490000057965517,-8.028229785850272e-05,0.024129999801516533
8.359000205993652,-0.012140000239014626,-0.008484604768455029,0.01802000030875206
8.364999771118164,-0.01795000024139881,-0.02313387580215931,0.012670000083744526
8.371000289916992,-0.015540000051259995,-0.037972696125507355,0.008440000005066395
8.376999855041504,-0.006810000166296959,-0.04328308627009392,0.005570000037550926
8.383000373840332,-0.004350000061094761,-0.0330352745950222,0.004220000002533197
8.388999938964844,-0.009100000374019146,-0.01187464315444231,0.004449999891221523
8.395000457763672,-0.010730000212788582,0.01008594874292612,0.006219999864697456
8.401000022888184,-0.007319999858736992,0.024717183783650398,0.009410000406205654
8.406999588012695,-0.004749999847263098,0.029762141406536102,0.013810000382363796
8.413000106811523,-0.0031300000846385956,0.027589701116085052,0.019139999523758888
8.418999671936035,0.0004600000102072954,0.025689786300063133,0.025059999898076057
8.425000190734863,0.0002099999983329326,0.028554264456033707,0.03125
8.430999755859375,-0.006810000166296959,0.03600786626338959,0.03734000027179718
8.437000274658203,-0.00788000039756298,0.043901700526475906,0.04303000122308731
8.442999839782715,-0.00031900001340545714,0.05082106217741966,0.04803000018000603
8.449000358581543,-0.00028700000257231295,0.05755765736103058,0.05203000083565712
8.454999923706055,-0.007110000122338533,0.0618317648768425,0.054919999092817307
8.461000442504883,-0.0044999998062849045,0.061026837676763535,0.05657999962568283
8.467000007629395,0.004569999873638153,0.058923713862895966,0.05697999894618988
8.472999572753906,0.006320000160485506,0.06673996150493622,0.056129999458789825
8.479000091552734,0.003229999914765358,0.08492417633533478,0.05407999828457832
8.484999656677246,0.004430000204592943,0.07544735074043274,0.05099000036716461
8.491000175476074,0.0048500001430511475,-0.02157905139029026,0.04701000079512596
8.496999740600586,-0.004889999981969595,-0.21968354284763336,0.04235000163316727
8.503000259399414,-0.019209999591112137,-0.42431414127349854,0.03717000037431717
8.508999824523926,-0.0266100000590086,-0.49452775716781616,0.031690001487731934
8.515000343322754,-0.023110000416636467,-0.3729974627494812,0.026079999282956123
8.520999908447266,-0.009879999794065952,-0.15476666390895844,0.02053000032901764
8.527000427246094,0.0028299998957663774,0.02010834403336048,0.015180000104010105
8.532999992370605,0.0030300000216811895,0.08742331713438034,0.010180000215768814
8.538999557495117,-0.0034799999557435513,0.08527794480323792,0.005679999943822622
8.545000076293945,-0.005499999970197678,0.0672861635684967,0.0017500000540167093
8.550999641418457,-0.0048500001430511475,0.056477464735507965,-0.001500000013038516
8.557000160217285,-0.005249999929219484,0.045874759554862976,-0.004019999876618385
8.562999725341797,-0.005900000222027302,0.03488122671842575,-0.00571999978274107
8.569000244140625,-0.00791999977082014,0.026691511273384094,-0.006539999973028898
8.574999809265137,-0.01104000024497509,0.02091500349342823,-0.0064199999906122684
8.581000328063965,-0.01051000040024519,0.016817213967442513,-0.005369999911636114
8.586999893188477,-0.00571999978274107,0.01567932218313217,-0.003370000049471855
8.593000411987305,-0.003379999892786145,0.018585609272122383,-0.0004689999914262444
8.598999977111816,-0.0048699998296797276,0.025593925267457962,0.003269999986514449
8.604999542236328,-0.00471000000834465,0.03377293050289154,0.007819999940693378
8.611000061035156,-0.0040799998678267,0.036583803594112396,0.01298999972641468
8.616999626159668,-0.004389999900013208,0.029810702428221703,0.018619999289512634
8.623000144958496,-0.0015800000401213765,0.01880679465830326,0.02449999935925007
8.628999710083008,-0.0001250000059371814,0.011342502199113369,0.030339999124407768
8.635000228881836,-0.0035500000230968,0.007004156243056059,0.03593999892473221
8.640999794006348,-0.0037899999879300594,-0.0018102966714650393,0.04098999872803688
8.647000312805176,-0.002959999954327941,-0.015846237540245056,0.04521999880671501
8.652999877929688,-0.009879999794065952,-0.028384609147906303,0.04836000129580498
8.659000396728516,-0.014720000326633453,-0.03363288938999176,0.05017000064253807
8.664999961853027,-0.006730000022798777,-0.03614072874188423,0.05048999935388565
8.670999526977539,0.0009139999747276306,-0.042691223323345184,0.04921000078320503
8.677000045776367,-0.004490000195801258,-0.05380018427968025,0.04633000120520592
8.682999610900879,-0.009999999776482582,-0.06613723933696747,0.04187000170350075
8.689000129699707,-0.0032599999103695154,-0.07477834820747375,0.035989999771118164
8.694999694824219,0.0033400000538676977,-0.07320721447467804,0.02889999933540821
8.701000213623047,0.001069999998435378,-0.056895747780799866,0.020919999107718468
8.706999778747559,0.0010499999625608325,-0.030907653272151947,0.012419999577105045
8.713000297546387,0.00571999978274107,-0.006629166193306446,0.0037899999879300594
8.718999862670898,0.005040000192821026,0.00820273719727993,-0.0044999998062849045
8.725000381469727,0.0001539999939268455,0.011627469211816788,-0.012070000171661377
8.730999946594238,0.0006670000148005784,0.006999743636697531,-0.01850000023841858
8.737000465393066,0.00687999976798892,-0.001406120602041483,-0.023479999974370003
8.743000030517578,0.0094200000166893,-0.009979925118386745,-0.026729999110102654
8.74899959564209,0.006380000151693821,-0.015519066713750362,-0.028060000389814377
8.755000114440918,0.007689999882131815,-0.015349860303103924,-0.02741999924182892
8.76099967956543,0.013949999585747719,-0.011839075945317745,-0.024890000000596046
8.767000198364258,0.014170000329613686,-0.008567947894334793,-0.020640000700950623
8.77299976348877,0.008329999633133411,-0.007821186445653439,-0.01489999983459711
8.779000282287598,0.005009999964386225,-0.007620146498084068,-0.008009999990463257
8.78499984741211,0.005200000014156103,-0.004566954914480448,-0.00036100001307204366
